'Elapsed time','MLII','V1'
'hh:mm:ss.mmm','mV','mV'
'0:10.000',-6.100,-5.695
'0:10.003',-6.125,-5.690
'0:10.006',-6.130,-5.650
'0:10.008',-6.120,-5.610
'0:10.011',-6.055,-5.585
'0:10.014',-5.960,-5.515
'0:10.017',-5.805,-5.505
'0:10.019',-5.595,-5.520
'0:10.022',-5.290,-5.575
'0:10.025',-4.925,-5.695
'0:10.028',-4.545,-5.850
'0:10.031',-4.225,-6.050
'0:10.033',-3.985,-6.265
'0:10.036',-3.855,-6.465
'0:10.039',-3.835,-6.610
'0:10.042',-3.920,-6.685
'0:10.044',-4.135,-6.700
'0:10.047',-4.450,-6.650
'0:10.050',-4.885,-6.650
'0:10.053',-5.430,-6.590
'0:10.056',-5.880,-6.510
'0:10.058',-6.180,-6.415
'0:10.061',-6.260,-6.325
'0:10.064',-6.175,-6.240
'0:10.067',-6.035,-6.140
'0:10.069',-5.895,-6.045
'0:10.072',-5.820,-5.990
'0:10.075',-5.825,-5.920
'0:10.078',-5.890,-5.880
'0:10.081',-5.955,-5.830
'0:10.083',-6.025,-5.800
'0:10.086',-6.060,-5.770
'0:10.089',-6.105,-5.740
'0:10.092',-6.105,-5.725
'0:10.094',-6.085,-5.710
'0:10.097',-6.070,-5.715
'0:10.100',-6.070,-5.675
'0:10.103',-6.060,-5.675
'0:10.106',-6.075,-5.670
'0:10.108',-6.085,-5.655
'0:10.111',-6.090,-5.655
'0:10.114',-6.095,-5.655
'0:10.117',-6.110,-5.660
'0:10.119',-6.130,-5.675
'0:10.122',-6.125,-5.665
'0:10.125',-6.135,-5.670
'0:10.128',-6.110,-5.660
'0:10.131',-6.100,-5.645
'0:10.133',-6.095,-5.640
'0:10.136',-6.080,-5.630
'0:10.139',-6.095,-5.625
'0:10.142',-6.100,-5.645
'0:10.144',-6.100,-5.635
'0:10.147',-6.115,-5.660
'0:10.150',-6.125,-5.670
'0:10.153',-6.130,-5.670
'0:10.156',-6.135,-5.655
'0:10.158',-6.150,-5.660
'0:10.161',-6.125,-5.660
'0:10.164',-6.115,-5.640
'0:10.167',-6.100,-5.620
'0:10.169',-6.095,-5.600
'0:10.172',-6.110,-5.615
'0:10.175',-6.110,-5.600
'0:10.178',-6.110,-5.615
'0:10.181',-6.110,-5.630
'0:10.183',-6.120,-5.645
'0:10.186',-6.115,-5.635
'0:10.189',-6.120,-5.630
'0:10.192',-6.130,-5.620
'0:10.194',-6.115,-5.630
'0:10.197',-6.105,-5.615
'0:10.200',-6.085,-5.605
'0:10.203',-6.090,-5.605
'0:10.206',-6.105,-5.595
'0:10.208',-6.095,-5.605
'0:10.211',-6.090,-5.625
'0:10.214',-6.095,-5.625
'0:10.217',-6.095,-5.635
'0:10.219',-6.090,-5.630
'0:10.222',-6.090,-5.630
'0:10.225',-6.090,-5.625
'0:10.228',-6.080,-5.605
'0:10.231',-6.040,-5.605
'0:10.233',-6.015,-5.595
'0:10.236',-6.000,-5.595
'0:10.239',-5.990,-5.595
'0:10.242',-5.985,-5.590
'0:10.244',-5.985,-5.600
'0:10.247',-6.000,-5.610
'0:10.250',-6.000,-5.615
'0:10.253',-5.985,-5.625
'0:10.256',-5.985,-5.620
'0:10.258',-5.980,-5.600
'0:10.261',-5.950,-5.600
'0:10.264',-5.930,-5.575
'0:10.267',-5.915,-5.590
'0:10.269',-5.875,-5.580
'0:10.272',-5.880,-5.575
'0:10.275',-5.870,-5.595
'0:10.278',-5.860,-5.625
'0:10.281',-5.835,-5.620
'0:10.283',-5.825,-5.620
'0:10.286',-5.800,-5.625
'0:10.289',-5.780,-5.625
'0:10.292',-5.755,-5.615
'0:10.294',-5.730,-5.615
'0:10.297',-5.685,-5.590
'0:10.300',-5.670,-5.570
'0:10.303',-5.650,-5.585
'0:10.306',-5.645,-5.590
'0:10.308',-5.630,-5.605
'0:10.311',-5.605,-5.615
'0:10.314',-5.595,-5.635
'0:10.317',-5.595,-5.645
'0:10.319',-5.580,-5.650
'0:10.322',-5.575,-5.645
'0:10.325',-5.550,-5.650
'0:10.328',-5.530,-5.640
'0:10.331',-5.515,-5.640
'0:10.333',-5.510,-5.645
'0:10.336',-5.480,-5.620
'0:10.339',-5.490,-5.640
'0:10.342',-5.495,-5.650
'0:10.344',-5.500,-5.645
'0:10.347',-5.530,-5.650
'0:10.350',-5.545,-5.660
'0:10.353',-5.580,-5.650
'0:10.356',-5.590,-5.655
'0:10.358',-5.610,-5.645
'0:10.361',-5.615,-5.620
'0:10.364',-5.655,-5.615
'0:10.367',-5.675,-5.590
'0:10.369',-5.690,-5.595
'0:10.372',-5.720,-5.605
'0:10.375',-5.755,-5.585
'0:10.378',-5.800,-5.605
'0:10.381',-5.830,-5.605
'0:10.383',-5.865,-5.615
'0:10.386',-5.900,-5.625
'0:10.389',-5.915,-5.610
'0:10.392',-5.940,-5.625
'0:10.394',-5.955,-5.615
'0:10.397',-5.960,-5.605
'0:10.400',-5.965,-5.595
'0:10.403',-5.990,-5.590
'0:10.406',-5.990,-5.605
'0:10.408',-6.025,-5.600
'0:10.411',-6.040,-5.600
'0:10.414',-6.065,-5.620
'0:10.417',-6.070,-5.640
'0:10.419',-6.075,-5.625
'0:10.422',-6.080,-5.615
'0:10.425',-6.095,-5.620
'0:10.428',-6.090,-5.630
'0:10.431',-6.080,-5.610
'0:10.433',-6.070,-5.585
'0:10.436',-6.075,-5.590
'0:10.439',-6.075,-5.595
'0:10.442',-6.075,-5.605
'0:10.444',-6.085,-5.615
'0:10.447',-6.090,-5.625
'0:10.450',-6.115,-5.640
'0:10.453',-6.125,-5.645
'0:10.456',-6.120,-5.640
'0:10.458',-6.105,-5.630
'0:10.461',-6.120,-5.615
'0:10.464',-6.100,-5.615
'0:10.467',-6.085,-5.610
'0:10.469',-6.075,-5.590
'0:10.472',-6.090,-5.595
'0:10.475',-6.090,-5.590
'0:10.478',-6.080,-5.605
'0:10.481',-6.100,-5.615
'0:10.483',-6.095,-5.625
'0:10.486',-6.100,-5.635
'0:10.489',-6.100,-5.620
'0:10.492',-6.105,-5.625
'0:10.494',-6.085,-5.610
'0:10.497',-6.060,-5.610
'0:10.500',-6.050,-5.595
'0:10.503',-6.035,-5.595
'0:10.506',-6.050,-5.605
'0:10.508',-6.035,-5.605
'0:10.511',-6.050,-5.625
'0:10.514',-6.060,-5.630
'0:10.517',-6.070,-5.655
'0:10.519',-6.065,-5.645
'0:10.522',-6.060,-5.640
'0:10.525',-6.065,-5.640
'0:10.528',-6.060,-5.630
'0:10.531',-6.055,-5.615
'0:10.533',-6.055,-5.600
'0:10.536',-6.030,-5.575
'0:10.539',-6.045,-5.595
'0:10.542',-6.040,-5.585
'0:10.544',-6.055,-5.595
'0:10.547',-6.050,-5.610
'0:10.550',-6.065,-5.620
'0:10.553',-6.060,-5.640
'0:10.556',-6.080,-5.630
'0:10.558',-6.070,-5.635
'0:10.561',-6.070,-5.625
'0:10.564',-6.050,-5.600
'0:10.567',-6.060,-5.600
'0:10.569',-6.055,-5.595
'0:10.572',-6.040,-5.605
'0:10.575',-6.055,-5.610
'0:10.578',-6.065,-5.625
'0:10.581',-6.075,-5.635
'0:10.583',-6.070,-5.640
'0:10.586',-6.085,-5.640
'0:10.589',-6.085,-5.640
'0:10.592',-6.090,-5.625
'0:10.594',-6.080,-5.610
'0:10.597',-6.095,-5.620
'0:10.600',-6.085,-5.575
'0:10.603',-6.080,-5.580
'0:10.606',-6.070,-5.600
'0:10.608',-6.080,-5.595
'0:10.611',-6.090,-5.615
'0:10.614',-6.095,-5.625
'0:10.617',-6.110,-5.635
'0:10.619',-6.115,-5.640
'0:10.622',-6.110,-5.635
'0:10.625',-6.110,-5.620
'0:10.628',-6.100,-5.625
'0:10.631',-6.095,-5.610
'0:10.633',-6.095,-5.605
'0:10.636',-6.075,-5.610
'0:10.639',-6.095,-5.610
'0:10.642',-6.100,-5.610
'0:10.644',-6.105,-5.620
'0:10.647',-6.115,-5.630
'0:10.650',-6.110,-5.640
'0:10.653',-6.105,-5.650
'0:10.656',-6.120,-5.630
'0:10.658',-6.115,-5.625
'0:10.661',-6.110,-5.610
'0:10.664',-6.110,-5.595
'0:10.667',-6.110,-5.595
'0:10.669',-6.110,-5.595
'0:10.672',-6.105,-5.600
'0:10.675',-6.105,-5.600
'0:10.678',-6.115,-5.620
'0:10.681',-6.130,-5.635
'0:10.683',-6.130,-5.635
'0:10.686',-6.125,-5.635
'0:10.689',-6.110,-5.635
'0:10.692',-6.110,-5.635
'0:10.694',-6.090,-5.615
'0:10.697',-6.055,-5.590
'0:10.700',-6.030,-5.580
'0:10.703',-6.005,-5.560
'0:10.706',-5.980,-5.535
'0:10.708',-5.970,-5.565
'0:10.711',-5.970,-5.550
'0:10.714',-5.960,-5.555
'0:10.717',-5.950,-5.555
'0:10.719',-5.930,-5.560
'0:10.722',-5.920,-5.550
'0:10.725',-5.870,-5.545
'0:10.728',-5.830,-5.535
'0:10.731',-5.790,-5.530
'0:10.733',-5.770,-5.535
'0:10.736',-5.760,-5.545
'0:10.739',-5.760,-5.580
'0:10.742',-5.785,-5.615
'0:10.744',-5.800,-5.635
'0:10.747',-5.810,-5.655
'0:10.750',-5.805,-5.660
'0:10.753',-5.830,-5.670
'0:10.756',-5.850,-5.675
'0:10.758',-5.895,-5.660
'0:10.761',-5.935,-5.645
'0:10.764',-5.985,-5.640
'0:10.767',-6.025,-5.640
'0:10.769',-6.055,-5.610
'0:10.772',-6.085,-5.600
'0:10.775',-6.115,-5.600
'0:10.778',-6.125,-5.625
'0:10.781',-6.145,-5.640
'0:10.783',-6.155,-5.655
'0:10.786',-6.165,-5.665
'0:10.789',-6.160,-5.665
'0:10.792',-6.145,-5.665
'0:10.794',-6.155,-5.660
'0:10.797',-6.155,-5.650
'0:10.800',-6.155,-5.625
'0:10.803',-6.140,-5.630
'0:10.806',-6.140,-5.630
'0:10.808',-6.155,-5.645
'0:10.811',-6.170,-5.670
'0:10.814',-6.170,-5.685
'0:10.817',-6.175,-5.700
'0:10.819',-6.195,-5.700
'0:10.822',-6.185,-5.700
'0:10.825',-6.180,-5.685
'0:10.828',-6.180,-5.665
'0:10.831',-6.185,-5.655
'0:10.833',-6.155,-5.645
'0:10.836',-6.165,-5.630
'0:10.839',-6.145,-5.635
'0:10.842',-6.160,-5.620
'0:10.844',-6.165,-5.640
'0:10.847',-6.175,-5.650
'0:10.850',-6.175,-5.665
'0:10.853',-6.175,-5.680
'0:10.856',-6.175,-5.660
'0:10.858',-6.180,-5.670
'0:10.861',-6.190,-5.650
'0:10.864',-6.195,-5.630
'0:10.867',-6.205,-5.595
'0:10.869',-6.180,-5.565
'0:10.872',-6.145,-5.505
'0:10.875',-6.060,-5.460
'0:10.878',-5.900,-5.430
'0:10.881',-5.695,-5.450
'0:10.883',-5.410,-5.520
'0:10.886',-5.070,-5.650
'0:10.889',-4.710,-5.790
'0:10.892',-4.380,-5.975
'0:10.894',-4.125,-6.170
'0:10.897',-3.975,-6.375
'0:10.900',-3.930,-6.515
'0:10.903',-3.990,-6.625
'0:10.906',-4.165,-6.655
'0:10.908',-4.490,-6.635
'0:10.911',-4.930,-6.605
'0:10.914',-5.460,-6.540
'0:10.917',-5.925,-6.490
'0:10.919',-6.230,-6.420
'0:10.922',-6.320,-6.320
'0:10.925',-6.245,-6.225
'0:10.928',-6.105,-6.120
'0:10.931',-5.950,-6.045
'0:10.933',-5.875,-5.965
'0:10.936',-5.870,-5.895
'0:10.939',-5.925,-5.850
'0:10.942',-6.000,-5.805
'0:10.944',-6.050,-5.755
'0:10.947',-6.105,-5.725
'0:10.950',-6.130,-5.715
'0:10.953',-6.150,-5.695
'0:10.956',-6.140,-5.695
'0:10.958',-6.140,-5.675
'0:10.961',-6.130,-5.640
'0:10.964',-6.125,-5.620
'0:10.967',-6.115,-5.595
'0:10.969',-6.120,-5.595
'0:10.972',-6.120,-5.585
'0:10.975',-6.135,-5.590
'0:10.978',-6.145,-5.605
'0:10.981',-6.160,-5.605
'0:10.983',-6.155,-5.620
'0:10.986',-6.160,-5.605
'0:10.989',-6.150,-5.610
'0:10.992',-6.160,-5.600
'0:10.994',-6.140,-5.590
'0:10.997',-6.140,-5.580
'0:11.000',-6.140,-5.570
'0:11.003',-6.135,-5.565
'0:11.006',-6.130,-5.575
'0:11.008',-6.145,-5.580
'0:11.011',-6.135,-5.580
'0:11.014',-6.155,-5.610
'0:11.017',-6.165,-5.610
'0:11.019',-6.160,-5.605
'0:11.022',-6.175,-5.600
'0:11.025',-6.165,-5.600
'0:11.028',-6.145,-5.580
'0:11.031',-6.145,-5.580
'0:11.033',-6.125,-5.565
'0:11.036',-6.115,-5.545
'0:11.039',-6.105,-5.560
'0:11.042',-6.110,-5.560
'0:11.044',-6.120,-5.570
'0:11.047',-6.130,-5.570
'0:11.050',-6.145,-5.590
'0:11.053',-6.150,-5.610
'0:11.056',-6.150,-5.610
'0:11.058',-6.145,-5.590
'0:11.061',-6.130,-5.580
'0:11.064',-6.100,-5.575
'0:11.067',-6.100,-5.560
'0:11.069',-6.105,-5.550
'0:11.072',-6.090,-5.555
'0:11.075',-6.105,-5.565
'0:11.078',-6.095,-5.575
'0:11.081',-6.100,-5.590
'0:11.083',-6.100,-5.595
'0:11.086',-6.090,-5.585
'0:11.089',-6.090,-5.590
'0:11.092',-6.085,-5.570
'0:11.094',-6.090,-5.555
'0:11.097',-6.065,-5.555
'0:11.100',-6.045,-5.545
'0:11.103',-6.040,-5.540
'0:11.106',-6.035,-5.550
'0:11.108',-6.030,-5.540
'0:11.111',-6.025,-5.560
'0:11.114',-6.040,-5.555
'0:11.117',-6.025,-5.560
'0:11.119',-6.015,-5.575
'0:11.122',-6.000,-5.570
'0:11.125',-5.985,-5.565
'0:11.128',-5.965,-5.555
'0:11.131',-5.950,-5.555
'0:11.133',-5.930,-5.540
'0:11.136',-5.895,-5.540
'0:11.139',-5.885,-5.535
'0:11.142',-5.875,-5.530
'0:11.144',-5.875,-5.545
'0:11.147',-5.865,-5.540
'0:11.150',-5.850,-5.575
'0:11.153',-5.825,-5.565
'0:11.156',-5.820,-5.555
'0:11.158',-5.785,-5.530
'0:11.161',-5.770,-5.535
'0:11.164',-5.740,-5.530
'0:11.167',-5.715,-5.525
'0:11.169',-5.675,-5.500
'0:11.172',-5.655,-5.515
'0:11.175',-5.630,-5.530
'0:11.178',-5.640,-5.550
'0:11.181',-5.605,-5.545
'0:11.183',-5.615,-5.560
'0:11.186',-5.605,-5.570
'0:11.189',-5.585,-5.575
'0:11.192',-5.560,-5.555
'0:11.194',-5.545,-5.565
'0:11.197',-5.520,-5.560
'0:11.200',-5.495,-5.550
'0:11.203',-5.480,-5.555
'0:11.206',-5.460,-5.565
'0:11.208',-5.450,-5.565
'0:11.211',-5.465,-5.570
'0:11.214',-5.465,-5.600
'0:11.217',-5.470,-5.605
'0:11.219',-5.480,-5.590
'0:11.222',-5.480,-5.600
'0:11.225',-5.490,-5.590
'0:11.228',-5.505,-5.575
'0:11.231',-5.520,-5.570
'0:11.233',-5.515,-5.565
'0:11.236',-5.530,-5.545
'0:11.239',-5.570,-5.560
'0:11.242',-5.595,-5.560
'0:11.244',-5.630,-5.560
'0:11.247',-5.655,-5.595
'0:11.250',-5.705,-5.580
'0:11.253',-5.735,-5.590
'0:11.256',-5.765,-5.585
'0:11.258',-5.790,-5.575
'0:11.261',-5.815,-5.560
'0:11.264',-5.835,-5.585
'0:11.267',-5.850,-5.570
'0:11.269',-5.865,-5.565
'0:11.272',-5.890,-5.570
'0:11.275',-5.900,-5.580
'0:11.278',-5.910,-5.575
'0:11.281',-5.945,-5.590
'0:11.283',-5.975,-5.610
'0:11.286',-6.000,-5.615
'0:11.289',-6.015,-5.620
'0:11.292',-6.025,-5.590
'0:11.294',-6.005,-5.595
'0:11.297',-6.005,-5.585
'0:11.300',-6.010,-5.590
'0:11.303',-6.015,-5.590
'0:11.306',-6.025,-5.605
'0:11.308',-6.020,-5.590
'0:11.311',-6.040,-5.610
'0:11.314',-6.045,-5.610
'0:11.317',-6.055,-5.630
'0:11.319',-6.060,-5.620
'0:11.322',-6.055,-5.630
'0:11.325',-6.055,-5.630
'0:11.328',-6.060,-5.605
'0:11.331',-6.070,-5.625
'0:11.333',-6.070,-5.620
'0:11.336',-6.045,-5.600
'0:11.339',-6.050,-5.610
'0:11.342',-6.050,-5.620
'0:11.344',-6.050,-5.620
'0:11.347',-6.055,-5.615
'0:11.350',-6.070,-5.620
'0:11.353',-6.070,-5.620
'0:11.356',-6.060,-5.615
'0:11.358',-6.055,-5.620
'0:11.361',-6.035,-5.610
'0:11.364',-6.030,-5.615
'0:11.367',-6.025,-5.590
'0:11.369',-6.010,-5.595
'0:11.372',-6.005,-5.595
'0:11.375',-6.010,-5.605
'0:11.378',-6.005,-5.610
'0:11.381',-6.020,-5.625
'0:11.383',-6.015,-5.630
'0:11.386',-6.020,-5.615
'0:11.389',-6.025,-5.630
'0:11.392',-6.005,-5.625
'0:11.394',-6.010,-5.620
'0:11.397',-6.000,-5.615
'0:11.400',-5.985,-5.610
'0:11.403',-5.985,-5.600
'0:11.406',-5.985,-5.615
'0:11.408',-5.975,-5.615
'0:11.411',-5.980,-5.625
'0:11.414',-5.985,-5.615
'0:11.417',-6.000,-5.620
'0:11.419',-6.010,-5.620
'0:11.422',-6.005,-5.625
'0:11.425',-6.005,-5.625
'0:11.428',-6.010,-5.600
'0:11.431',-5.980,-5.610
'0:11.433',-5.985,-5.600
'0:11.436',-5.960,-5.605
'0:11.439',-5.960,-5.605
'0:11.442',-5.970,-5.615
'0:11.444',-5.965,-5.630
'0:11.447',-5.980,-5.630
'0:11.450',-5.985,-5.650
'0:11.453',-6.000,-5.650
'0:11.456',-6.005,-5.655
'0:11.458',-5.995,-5.640
'0:11.461',-6.000,-5.650
'0:11.464',-5.995,-5.635
'0:11.467',-6.000,-5.630
'0:11.469',-5.990,-5.610
'0:11.472',-5.980,-5.640
'0:11.475',-6.010,-5.630
'0:11.478',-6.010,-5.625
'0:11.481',-6.015,-5.650
'0:11.483',-6.015,-5.640
'0:11.486',-6.010,-5.645
'0:11.489',-6.025,-5.630
'0:11.492',-6.025,-5.645
'0:11.494',-6.010,-5.635
'0:11.497',-6.010,-5.620
'0:11.500',-6.020,-5.620
'0:11.503',-6.000,-5.615
'0:11.506',-6.010,-5.620
'0:11.508',-6.015,-5.620
'0:11.511',-6.015,-5.630
'0:11.514',-6.015,-5.645
'0:11.517',-6.010,-5.640
'0:11.519',-6.025,-5.660
'0:11.522',-6.040,-5.660
'0:11.525',-6.045,-5.660
'0:11.528',-6.035,-5.655
'0:11.531',-6.020,-5.640
'0:11.533',-6.015,-5.625
'0:11.536',-6.005,-5.615
'0:11.539',-6.005,-5.625
'0:11.542',-6.020,-5.625
'0:11.544',-6.020,-5.620
'0:11.547',-6.040,-5.630
'0:11.550',-6.020,-5.645
'0:11.553',-6.035,-5.655
'0:11.556',-6.060,-5.650
'0:11.558',-6.035,-5.655
'0:11.561',-6.040,-5.645
'0:11.564',-6.025,-5.650
'0:11.567',-6.020,-5.625
'0:11.569',-6.005,-5.635
'0:11.572',-6.010,-5.615
'0:11.575',-6.020,-5.645
'0:11.578',-6.030,-5.650
'0:11.581',-6.020,-5.660
'0:11.583',-6.040,-5.660
'0:11.586',-6.045,-5.665
'0:11.589',-6.045,-5.685
'0:11.592',-6.035,-5.670
'0:11.594',-6.045,-5.665
'0:11.597',-6.025,-5.645
'0:11.600',-6.015,-5.615
'0:11.603',-6.010,-5.630
'0:11.606',-6.005,-5.625
'0:11.608',-6.005,-5.625
'0:11.611',-6.015,-5.620
'0:11.614',-6.015,-5.640
'0:11.617',-6.035,-5.625
'0:11.619',-6.020,-5.640
'0:11.622',-6.010,-5.655
'0:11.625',-5.995,-5.630
'0:11.628',-5.955,-5.605
'0:11.631',-5.930,-5.595
'0:11.633',-5.910,-5.580
'0:11.636',-5.895,-5.555
'0:11.639',-5.885,-5.565
'0:11.642',-5.880,-5.555
'0:11.644',-5.865,-5.575
'0:11.647',-5.855,-5.570
'0:11.650',-5.850,-5.585
'0:11.653',-5.830,-5.575
'0:11.656',-5.800,-5.570
'0:11.658',-5.755,-5.550
'0:11.661',-5.715,-5.530
'0:11.664',-5.685,-5.545
'0:11.667',-5.660,-5.565
'0:11.669',-5.670,-5.570
'0:11.672',-5.665,-5.595
'0:11.675',-5.695,-5.630
'0:11.678',-5.705,-5.655
'0:11.681',-5.715,-5.660
'0:11.683',-5.710,-5.675
'0:11.686',-5.735,-5.675
'0:11.689',-5.755,-5.700
'0:11.692',-5.775,-5.680
'0:11.694',-5.820,-5.685
'0:11.697',-5.870,-5.675
'0:11.700',-5.915,-5.675
'0:11.703',-5.960,-5.655
'0:11.706',-6.010,-5.650
'0:11.708',-6.030,-5.680
'0:11.711',-6.070,-5.690
'0:11.714',-6.075,-5.685
'0:11.717',-6.070,-5.715
'0:11.719',-6.080,-5.700
'0:11.722',-6.085,-5.715
'0:11.725',-6.075,-5.690
'0:11.728',-6.065,-5.705
'0:11.731',-6.065,-5.685
'0:11.733',-6.070,-5.660
'0:11.736',-6.060,-5.670
'0:11.739',-6.055,-5.675
'0:11.742',-6.060,-5.690
'0:11.744',-6.075,-5.680
'0:11.747',-6.090,-5.705
'0:11.750',-6.095,-5.705
'0:11.753',-6.095,-5.700
'0:11.756',-6.095,-5.720
'0:11.758',-6.090,-5.725
'0:11.761',-6.080,-5.695
'0:11.764',-6.080,-5.700
'0:11.767',-6.080,-5.680
'0:11.769',-6.080,-5.680
'0:11.772',-6.060,-5.685
'0:11.775',-6.065,-5.700
'0:11.778',-6.050,-5.695
'0:11.781',-6.085,-5.695
'0:11.783',-6.080,-5.705
'0:11.786',-6.075,-5.705
'0:11.789',-6.090,-5.690
'0:11.792',-6.115,-5.670
'0:11.794',-6.135,-5.645
'0:11.797',-6.110,-5.615
'0:11.800',-6.075,-5.550
'0:11.803',-5.990,-5.465
'0:11.806',-5.845,-5.445
'0:11.808',-5.615,-5.470
'0:11.811',-5.335,-5.520
'0:11.814',-4.975,-5.660
'0:11.817',-4.595,-5.820
'0:11.819',-4.280,-6.055
'0:11.822',-4.025,-6.305
'0:11.825',-3.915,-6.515
'0:11.828',-3.885,-6.670
'0:11.831',-3.975,-6.770
'0:11.833',-4.175,-6.790
'0:11.836',-4.475,-6.735
'0:11.839',-4.970,-6.685
'0:11.842',-5.485,-6.605
'0:11.844',-5.915,-6.520
'0:11.847',-6.160,-6.420
'0:11.850',-6.190,-6.305
'0:11.853',-6.100,-6.205
'0:11.856',-5.970,-6.125
'0:11.858',-5.880,-6.025
'0:11.861',-5.815,-5.935
'0:11.864',-5.835,-5.870
'0:11.867',-5.890,-5.790
'0:11.869',-5.950,-5.750
'0:11.872',-5.995,-5.705
'0:11.875',-6.045,-5.680
'0:11.878',-6.060,-5.695
'0:11.881',-6.060,-5.690
'0:11.883',-6.070,-5.685
'0:11.886',-6.075,-5.675
'0:11.889',-6.075,-5.680
'0:11.892',-6.075,-5.650
'0:11.894',-6.085,-5.635
'0:11.897',-6.075,-5.635
'0:11.900',-6.075,-5.605
'0:11.903',-6.085,-5.610
'0:11.906',-6.090,-5.585
'0:11.908',-6.105,-5.590
'0:11.911',-6.100,-5.590
'0:11.914',-6.110,-5.595
'0:11.917',-6.095,-5.610
'0:11.919',-6.100,-5.625
'0:11.922',-6.100,-5.620
'0:11.925',-6.105,-5.625
'0:11.928',-6.095,-5.600
'0:11.931',-6.105,-5.590
'0:11.933',-6.080,-5.585
'0:11.936',-6.065,-5.565
'0:11.939',-6.070,-5.570
'0:11.942',-6.095,-5.580
'0:11.944',-6.100,-5.585
'0:11.947',-6.095,-5.600
'0:11.950',-6.100,-5.610
'0:11.953',-6.105,-5.615
'0:11.956',-6.115,-5.605
'0:11.958',-6.095,-5.610
'0:11.961',-6.110,-5.595
'0:11.964',-6.085,-5.585
'0:11.967',-6.080,-5.570
'0:11.969',-6.065,-5.555
'0:11.972',-6.065,-5.550
'0:11.975',-6.080,-5.550
'0:11.978',-6.070,-5.555
'0:11.981',-6.075,-5.565
'0:11.983',-6.080,-5.565
'0:11.986',-6.085,-5.580
'0:11.989',-6.090,-5.590
'0:11.992',-6.070,-5.565
'0:11.994',-6.075,-5.575
'0:11.997',-6.055,-5.550
'0:12.000',-6.050,-5.545
'0:12.003',-6.030,-5.550
'0:12.006',-6.015,-5.540
'0:12.008',-6.025,-5.565
'0:12.011',-6.045,-5.555
'0:12.014',-6.030,-5.565
'0:12.017',-6.040,-5.585
'0:12.019',-6.030,-5.565
'0:12.022',-6.020,-5.575
'0:12.025',-6.030,-5.575
'0:12.028',-5.995,-5.570
'0:12.031',-5.975,-5.530
'0:12.033',-5.950,-5.515
'0:12.036',-5.930,-5.505
'0:12.039',-5.910,-5.525
'0:12.042',-5.900,-5.515
'0:12.044',-5.895,-5.540
'0:12.047',-5.915,-5.540
'0:12.050',-5.910,-5.550
'0:12.053',-5.880,-5.550
'0:12.056',-5.860,-5.570
'0:12.058',-5.855,-5.555
'0:12.061',-5.840,-5.545
'0:12.064',-5.810,-5.540
'0:12.067',-5.785,-5.520
'0:12.069',-5.735,-5.510
'0:12.072',-5.725,-5.510
'0:12.075',-5.725,-5.535
'0:12.078',-5.700,-5.535
'0:12.081',-5.690,-5.550
'0:12.083',-5.665,-5.550
'0:12.086',-5.660,-5.565
'0:12.089',-5.630,-5.565
'0:12.092',-5.625,-5.560
'0:12.094',-5.590,-5.540
'0:12.097',-5.545,-5.530
'0:12.100',-5.525,-5.540
'0:12.103',-5.485,-5.525
'0:12.106',-5.485,-5.550
'0:12.108',-5.475,-5.535
'0:12.111',-5.465,-5.565
'0:12.114',-5.470,-5.555
'0:12.117',-5.460,-5.595
'0:12.119',-5.445,-5.585
'0:12.122',-5.460,-5.590
'0:12.125',-5.455,-5.600
'0:12.128',-5.435,-5.595
'0:12.131',-5.415,-5.600
'0:12.133',-5.425,-5.585
'0:12.136',-5.430,-5.580
'0:12.139',-5.450,-5.570
'0:12.142',-5.475,-5.580
'0:12.144',-5.510,-5.580
'0:12.147',-5.545,-5.585
'0:12.150',-5.585,-5.585
'0:12.153',-5.600,-5.590
'0:12.156',-5.635,-5.590
'0:12.158',-5.680,-5.575
'0:12.161',-5.710,-5.565
'0:12.164',-5.740,-5.540
'0:12.167',-5.755,-5.530
'0:12.169',-5.765,-5.535
'0:12.172',-5.800,-5.535
'0:12.175',-5.825,-5.545
'0:12.178',-5.845,-5.580
'0:12.181',-5.870,-5.555
'0:12.183',-5.910,-5.585
'0:12.186',-5.930,-5.575
'0:12.189',-5.945,-5.585
'0:12.192',-5.960,-5.590
'0:12.194',-5.965,-5.590
'0:12.197',-5.965,-5.585
'0:12.200',-5.960,-5.580
'0:12.203',-5.975,-5.570
'0:12.206',-5.980,-5.575
'0:12.208',-6.000,-5.585
'0:12.211',-6.020,-5.585
'0:12.214',-6.020,-5.595
'0:12.217',-6.030,-5.590
'0:12.219',-6.045,-5.595
'0:12.222',-6.050,-5.615
'0:12.225',-6.060,-5.605
'0:12.228',-6.045,-5.590
'0:12.231',-6.045,-5.585
'0:12.233',-6.025,-5.580
'0:12.236',-6.015,-5.555
'0:12.239',-6.015,-5.570
'0:12.242',-6.025,-5.575
'0:12.244',-6.020,-5.575
'0:12.247',-6.030,-5.595
'0:12.250',-6.045,-5.590
'0:12.253',-6.050,-5.605
'0:12.256',-6.050,-5.620
'0:12.258',-6.050,-5.605
'0:12.261',-6.035,-5.610
'0:12.264',-6.020,-5.580
'0:12.267',-6.010,-5.585
'0:12.269',-6.035,-5.580
'0:12.272',-6.025,-5.585
'0:12.275',-5.995,-5.570
'0:12.278',-5.990,-5.585
'0:12.281',-5.995,-5.575
'0:12.283',-6.005,-5.570
'0:12.286',-6.010,-5.575
'0:12.289',-6.035,-5.570
'0:12.292',-6.025,-5.555
'0:12.294',-6.025,-5.535
'0:12.297',-6.010,-5.510
'0:12.300',-6.000,-5.485
'0:12.303',-5.960,-5.450
'0:12.306',-5.905,-5.415
'0:12.308',-5.820,-5.380
'0:12.311',-5.720,-5.360
'0:12.314',-5.580,-5.395
'0:12.317',-5.430,-5.470
'0:12.319',-5.275,-5.615
'0:12.322',-5.110,-5.775
'0:12.325',-4.915,-5.955
'0:12.328',-4.740,-6.095
'0:12.331',-4.530,-6.245
'0:12.333',-4.300,-6.395
'0:12.336',-4.080,-6.565
'0:12.339',-3.860,-6.770
'0:12.342',-3.645,-6.975
'0:12.344',-3.485,-7.150
'0:12.347',-3.360,-7.305
'0:12.350',-3.255,-7.400
'0:12.353',-3.210,-7.450
'0:12.356',-3.175,-7.450
'0:12.358',-3.165,-7.445
'0:12.361',-3.175,-7.425
'0:12.364',-3.175,-7.410
'0:12.367',-3.215,-7.370
'0:12.369',-3.275,-7.330
'0:12.372',-3.360,-7.315
'0:12.375',-3.445,-7.240
'0:12.378',-3.495,-7.160
'0:12.381',-3.530,-7.070
'0:12.383',-3.520,-6.985
'0:12.386',-3.530,-6.900
'0:12.389',-3.570,-6.800
'0:12.392',-3.645,-6.710
'0:12.394',-3.740,-6.615
'0:12.397',-3.885,-6.510
'0:12.400',-4.045,-6.420
'0:12.403',-4.240,-6.335
'0:12.406',-4.460,-6.260
'0:12.408',-4.770,-6.185
'0:12.411',-5.150,-6.105
'0:12.414',-5.525,-6.025
'0:12.417',-5.855,-5.925
'0:12.419',-6.085,-5.815
'0:12.422',-6.200,-5.705
'0:12.425',-6.215,-5.605
'0:12.428',-6.235,-5.555
'0:12.431',-6.195,-5.510
'0:12.433',-6.185,-5.490
'0:12.436',-6.200,-5.475
'0:12.439',-6.215,-5.470
'0:12.442',-6.275,-5.480
'0:12.444',-6.330,-5.455
'0:12.447',-6.370,-5.445
'0:12.450',-6.415,-5.455
'0:12.453',-6.435,-5.430
'0:12.456',-6.450,-5.425
'0:12.458',-6.455,-5.410
'0:12.461',-6.460,-5.390
'0:12.464',-6.465,-5.370
'0:12.467',-6.495,-5.350
'0:12.469',-6.500,-5.335
'0:12.472',-6.495,-5.320
'0:12.475',-6.500,-5.315
'0:12.478',-6.510,-5.325
'0:12.481',-6.530,-5.320
'0:12.483',-6.555,-5.320
'0:12.486',-6.570,-5.340
'0:12.489',-6.585,-5.310
'0:12.492',-6.575,-5.300
'0:12.494',-6.570,-5.285
'0:12.497',-6.560,-5.250
'0:12.500',-6.555,-5.235
'0:12.503',-6.540,-5.200
'0:12.506',-6.535,-5.190
'0:12.508',-6.530,-5.190
'0:12.511',-6.545,-5.175
'0:12.514',-6.540,-5.170
'0:12.517',-6.555,-5.175
'0:12.519',-6.570,-5.165
'0:12.522',-6.555,-5.155
'0:12.525',-6.540,-5.135
'0:12.528',-6.545,-5.100
'0:12.531',-6.525,-5.085
'0:12.533',-6.505,-5.085
'0:12.536',-6.500,-5.100
'0:12.539',-6.510,-5.105
'0:12.542',-6.535,-5.125
'0:12.544',-6.565,-5.140
'0:12.547',-6.595,-5.115
'0:12.550',-6.630,-5.125
'0:12.553',-6.640,-5.115
'0:12.556',-6.660,-5.085
'0:12.558',-6.695,-5.070
'0:12.561',-6.745,-5.050
'0:12.564',-6.795,-5.010
'0:12.567',-6.850,-4.990
'0:12.569',-6.915,-4.970
'0:12.572',-6.985,-4.940
'0:12.575',-7.050,-4.920
'0:12.578',-7.115,-4.925
'0:12.581',-7.190,-4.905
'0:12.583',-7.240,-4.870
'0:12.586',-7.255,-4.855
'0:12.589',-7.275,-4.850
'0:12.592',-7.295,-4.830
'0:12.594',-7.300,-4.785
'0:12.597',-7.325,-4.745
'0:12.600',-7.350,-4.730
'0:12.603',-7.355,-4.725
'0:12.606',-7.360,-4.700
'0:12.608',-7.385,-4.695
'0:12.611',-7.415,-4.690
'0:12.614',-7.445,-4.685
'0:12.617',-7.465,-4.710
'0:12.619',-7.485,-4.720
'0:12.622',-7.475,-4.725
'0:12.625',-7.485,-4.725
'0:12.628',-7.470,-4.725
'0:12.631',-7.470,-4.730
'0:12.633',-7.465,-4.725
'0:12.636',-7.450,-4.735
'0:12.639',-7.430,-4.750
'0:12.642',-7.425,-4.785
'0:12.644',-7.405,-4.795
'0:12.647',-7.375,-4.835
'0:12.650',-7.345,-4.855
'0:12.653',-7.320,-4.905
'0:12.656',-7.295,-4.940
'0:12.658',-7.250,-4.945
'0:12.661',-7.200,-4.960
'0:12.664',-7.150,-5.005
'0:12.667',-7.105,-5.015
'0:12.669',-7.060,-5.045
'0:12.672',-7.000,-5.075
'0:12.675',-6.955,-5.105
'0:12.678',-6.895,-5.160
'0:12.681',-6.845,-5.180
'0:12.683',-6.790,-5.240
'0:12.686',-6.750,-5.270
'0:12.689',-6.720,-5.320
'0:12.692',-6.640,-5.345
'0:12.694',-6.585,-5.375
'0:12.697',-6.545,-5.390
'0:12.700',-6.495,-5.410
'0:12.703',-6.470,-5.410
'0:12.706',-6.430,-5.430
'0:12.708',-6.410,-5.440
'0:12.711',-6.370,-5.455
'0:12.714',-6.370,-5.470
'0:12.717',-6.365,-5.480
'0:12.719',-6.360,-5.505
'0:12.722',-6.345,-5.515
'0:12.725',-6.345,-5.530
'0:12.728',-6.330,-5.510
'0:12.731',-6.315,-5.505
'0:12.733',-6.310,-5.505
'0:12.736',-6.305,-5.500
'0:12.739',-6.300,-5.510
'0:12.742',-6.315,-5.505
'0:12.744',-6.310,-5.530
'0:12.747',-6.325,-5.520
'0:12.750',-6.320,-5.545
'0:12.753',-6.330,-5.545
'0:12.756',-6.340,-5.545
'0:12.758',-6.325,-5.550
'0:12.761',-6.325,-5.545
'0:12.764',-6.330,-5.520
'0:12.767',-6.330,-5.510
'0:12.769',-6.295,-5.490
'0:12.772',-6.295,-5.485
'0:12.775',-6.295,-5.500
'0:12.778',-6.310,-5.500
'0:12.781',-6.320,-5.515
'0:12.783',-6.325,-5.520
'0:12.786',-6.335,-5.535
'0:12.789',-6.330,-5.540
'0:12.792',-6.300,-5.530
'0:12.794',-6.305,-5.520
'0:12.797',-6.290,-5.525
'0:12.800',-6.280,-5.505
'0:12.803',-6.260,-5.510
'0:12.806',-6.255,-5.515
'0:12.808',-6.260,-5.510
'0:12.811',-6.280,-5.520
'0:12.814',-6.280,-5.540
'0:12.817',-6.280,-5.535
'0:12.819',-6.280,-5.560
'0:12.822',-6.285,-5.560
'0:12.825',-6.260,-5.555
'0:12.828',-6.255,-5.535
'0:12.831',-6.255,-5.530
'0:12.833',-6.235,-5.520
'0:12.836',-6.240,-5.505
'0:12.839',-6.220,-5.535
'0:12.842',-6.210,-5.530
'0:12.844',-6.225,-5.535
'0:12.847',-6.225,-5.555
'0:12.850',-6.230,-5.560
'0:12.853',-6.235,-5.560
'0:12.856',-6.240,-5.570
'0:12.858',-6.240,-5.560
'0:12.861',-6.235,-5.555
'0:12.864',-6.205,-5.555
'0:12.867',-6.210,-5.545
'0:12.869',-6.195,-5.555
'0:12.872',-6.205,-5.550
'0:12.875',-6.200,-5.550
'0:12.878',-6.210,-5.565
'0:12.881',-6.205,-5.575
'0:12.883',-6.220,-5.590
'0:12.886',-6.220,-5.575
'0:12.889',-6.230,-5.575
'0:12.892',-6.220,-5.585
'0:12.894',-6.200,-5.560
'0:12.897',-6.190,-5.555
'0:12.900',-6.180,-5.540
'0:12.903',-6.180,-5.535
'0:12.906',-6.185,-5.525
'0:12.908',-6.185,-5.555
'0:12.911',-6.190,-5.555
'0:12.914',-6.205,-5.570
'0:12.917',-6.215,-5.575
'0:12.919',-6.210,-5.585
'0:12.922',-6.205,-5.585
'0:12.925',-6.200,-5.590
'0:12.928',-6.195,-5.585
'0:12.931',-6.175,-5.570
'0:12.933',-6.180,-5.545
'0:12.936',-6.170,-5.560
'0:12.939',-6.165,-5.570
'0:12.942',-6.165,-5.570
'0:12.944',-6.180,-5.570
'0:12.947',-6.175,-5.595
'0:12.950',-6.185,-5.600
'0:12.953',-6.195,-5.610
'0:12.956',-6.195,-5.600
'0:12.958',-6.175,-5.615
'0:12.961',-6.165,-5.595
'0:12.964',-6.165,-5.595
'0:12.967',-6.170,-5.580
'0:12.969',-6.160,-5.570
'0:12.972',-6.155,-5.585
'0:12.975',-6.140,-5.570
'0:12.978',-6.150,-5.580
'0:12.981',-6.150,-5.610
'0:12.983',-6.160,-5.610
'0:12.986',-6.170,-5.615
'0:12.989',-6.165,-5.620
'0:12.992',-6.165,-5.610
'0:12.994',-6.150,-5.620
'0:12.997',-6.145,-5.605
'0:13.000',-6.150,-5.595
'0:13.003',-6.140,-5.580
'0:13.006',-6.120,-5.560
'0:13.008',-6.140,-5.565
'0:13.011',-6.145,-5.595
'0:13.014',-6.155,-5.590
'0:13.017',-6.155,-5.605
'0:13.019',-6.170,-5.615
'0:13.022',-6.160,-5.615
'0:13.025',-6.160,-5.620
'0:13.028',-6.160,-5.615
'0:13.031',-6.135,-5.600
'0:13.033',-6.130,-5.600
'0:13.036',-6.115,-5.595
'0:13.039',-6.100,-5.585
'0:13.042',-6.115,-5.600
'0:13.044',-6.125,-5.610
'0:13.047',-6.130,-5.625
'0:13.050',-6.150,-5.640
'0:13.053',-6.155,-5.630
'0:13.056',-6.150,-5.635
'0:13.058',-6.150,-5.630
'0:13.061',-6.140,-5.615
'0:13.064',-6.145,-5.615
'0:13.067',-6.115,-5.585
'0:13.069',-6.115,-5.585
'0:13.072',-6.110,-5.595
'0:13.075',-6.100,-5.580
'0:13.078',-6.100,-5.595
'0:13.081',-6.120,-5.620
'0:13.083',-6.135,-5.615
'0:13.086',-6.145,-5.620
'0:13.089',-6.160,-5.645
'0:13.092',-6.145,-5.620
'0:13.094',-6.130,-5.620
'0:13.097',-6.125,-5.600
'0:13.100',-6.120,-5.605
'0:13.103',-6.085,-5.600
'0:13.106',-6.090,-5.605
'0:13.108',-6.085,-5.605
'0:13.111',-6.105,-5.615
'0:13.114',-6.120,-5.620
'0:13.117',-6.120,-5.620
'0:13.119',-6.105,-5.645
'0:13.122',-6.110,-5.640
'0:13.125',-6.110,-5.630
'0:13.128',-6.100,-5.610
'0:13.131',-6.085,-5.620
'0:13.133',-6.080,-5.590
'0:13.136',-6.080,-5.600
'0:13.139',-6.070,-5.615
'0:13.142',-6.085,-5.590
'0:13.144',-6.080,-5.595
'0:13.147',-6.080,-5.620
'0:13.150',-6.090,-5.615
'0:13.153',-6.100,-5.625
'0:13.156',-6.100,-5.620
'0:13.158',-6.095,-5.645
'0:13.161',-6.100,-5.630
'0:13.164',-6.095,-5.630
'0:13.167',-6.070,-5.610
'0:13.169',-6.070,-5.610
'0:13.172',-6.060,-5.600
'0:13.175',-6.065,-5.590
'0:13.178',-6.075,-5.610
'0:13.181',-6.075,-5.605
'0:13.183',-6.085,-5.605
'0:13.186',-6.090,-5.605
'0:13.189',-6.085,-5.630
'0:13.192',-6.090,-5.625
'0:13.194',-6.070,-5.600
'0:13.197',-6.045,-5.605
'0:13.200',-6.060,-5.605
'0:13.203',-6.055,-5.595
'0:13.206',-6.050,-5.590
'0:13.208',-6.055,-5.580
'0:13.211',-6.065,-5.605
'0:13.214',-6.080,-5.620
'0:13.217',-6.065,-5.630
'0:13.219',-6.080,-5.645
'0:13.222',-6.090,-5.640
'0:13.225',-6.085,-5.630
'0:13.228',-6.070,-5.630
'0:13.231',-6.060,-5.620
'0:13.233',-6.055,-5.585
'0:13.236',-6.035,-5.605
'0:13.239',-6.030,-5.590
'0:13.242',-6.045,-5.600
'0:13.244',-6.045,-5.595
'0:13.247',-6.040,-5.610
'0:13.250',-6.040,-5.610
'0:13.253',-6.060,-5.620
'0:13.256',-6.055,-5.620
'0:13.258',-6.060,-5.615
'0:13.261',-6.045,-5.605
'0:13.264',-6.040,-5.605
'0:13.267',-6.055,-5.615
'0:13.269',-6.040,-5.595
'0:13.272',-6.020,-5.605
'0:13.275',-6.025,-5.615
'0:13.278',-6.030,-5.605
'0:13.281',-6.035,-5.630
'0:13.283',-6.040,-5.625
'0:13.286',-6.045,-5.650
'0:13.289',-6.040,-5.645
'0:13.292',-6.040,-5.635
'0:13.294',-6.050,-5.625
'0:13.297',-6.035,-5.610
'0:13.300',-6.025,-5.605
'0:13.303',-6.020,-5.595
'0:13.306',-6.010,-5.595
'0:13.308',-6.025,-5.580
'0:13.311',-6.000,-5.595
'0:13.314',-6.000,-5.610
'0:13.317',-6.020,-5.615
'0:13.319',-6.025,-5.645
'0:13.322',-6.030,-5.635
'0:13.325',-6.040,-5.640
'0:13.328',-6.030,-5.645
'0:13.331',-6.020,-5.620
'0:13.333',-6.010,-5.615
'0:13.336',-6.010,-5.605
'0:13.339',-6.010,-5.620
'0:13.342',-5.990,-5.615
'0:13.344',-6.015,-5.610
'0:13.347',-6.020,-5.625
'0:13.350',-6.015,-5.645
'0:13.353',-6.025,-5.650
'0:13.356',-6.030,-5.645
'0:13.358',-6.025,-5.635
'0:13.361',-6.030,-5.630
'0:13.364',-6.020,-5.600
'0:13.367',-6.015,-5.605
'0:13.369',-6.010,-5.585
'0:13.372',-5.980,-5.585
'0:13.375',-5.995,-5.585
'0:13.378',-5.995,-5.595
'0:13.381',-6.010,-5.605
'0:13.383',-6.025,-5.625
'0:13.386',-6.010,-5.640
'0:13.389',-6.020,-5.615
'0:13.392',-6.020,-5.635
'0:13.394',-6.015,-5.615
'0:13.397',-6.000,-5.605
'0:13.400',-6.010,-5.610
'0:13.403',-5.990,-5.605
'0:13.406',-5.990,-5.585
'0:13.408',-5.995,-5.605
'0:13.411',-5.995,-5.610
'0:13.414',-6.005,-5.620
'0:13.417',-6.015,-5.620
'0:13.419',-6.015,-5.620
'0:13.422',-5.995,-5.635
'0:13.425',-6.005,-5.615
'0:13.428',-6.005,-5.600
'0:13.431',-5.975,-5.585
'0:13.433',-5.960,-5.565
'0:13.436',-5.960,-5.570
'0:13.439',-5.940,-5.565
'0:13.442',-5.930,-5.560
'0:13.444',-5.925,-5.575
'0:13.447',-5.905,-5.570
'0:13.450',-5.890,-5.570
'0:13.453',-5.875,-5.580
'0:13.456',-5.855,-5.560
'0:13.458',-5.855,-5.545
'0:13.461',-5.850,-5.550
'0:13.464',-5.825,-5.525
'0:13.467',-5.800,-5.520
'0:13.469',-5.760,-5.510
'0:13.472',-5.700,-5.505
'0:13.475',-5.665,-5.505
'0:13.478',-5.630,-5.505
'0:13.481',-5.625,-5.540
'0:13.483',-5.655,-5.570
'0:13.486',-5.675,-5.590
'0:13.489',-5.695,-5.610
'0:13.492',-5.685,-5.630
'0:13.494',-5.675,-5.625
'0:13.497',-5.665,-5.610
'0:13.500',-5.655,-5.610
'0:13.503',-5.650,-5.620
'0:13.506',-5.665,-5.610
'0:13.508',-5.715,-5.610
'0:13.511',-5.780,-5.640
'0:13.514',-5.840,-5.640
'0:13.517',-5.900,-5.640
'0:13.519',-5.940,-5.635
'0:13.522',-5.985,-5.650
'0:13.525',-6.015,-5.650
'0:13.528',-6.005,-5.650
'0:13.531',-6.000,-5.650
'0:13.533',-5.995,-5.645
'0:13.536',-5.975,-5.640
'0:13.539',-5.980,-5.650
'0:13.542',-5.970,-5.655
'0:13.544',-5.985,-5.650
'0:13.547',-6.000,-5.660
'0:13.550',-6.020,-5.655
'0:13.553',-6.015,-5.660
'0:13.556',-6.030,-5.670
'0:13.558',-6.040,-5.670
'0:13.561',-6.010,-5.650
'0:13.564',-6.010,-5.660
'0:13.567',-6.005,-5.650
'0:13.569',-5.990,-5.630
'0:13.572',-5.985,-5.640
'0:13.575',-6.000,-5.640
'0:13.578',-6.010,-5.635
'0:13.581',-6.020,-5.660
'0:13.583',-6.025,-5.655
'0:13.586',-6.020,-5.685
'0:13.589',-6.040,-5.665
'0:13.592',-6.055,-5.655
'0:13.594',-6.080,-5.630
'0:13.597',-6.055,-5.595
'0:13.600',-5.995,-5.530
'0:13.603',-5.905,-5.480
'0:13.606',-5.745,-5.435
'0:13.608',-5.530,-5.445
'0:13.611',-5.245,-5.485
'0:13.614',-4.920,-5.580
'0:13.617',-4.560,-5.720
'0:13.619',-4.240,-5.890
'0:13.622',-3.955,-6.110
'0:13.625',-3.805,-6.315
'0:13.628',-3.750,-6.495
'0:13.631',-3.790,-6.610
'0:13.633',-3.910,-6.645
'0:13.636',-4.160,-6.635
'0:13.639',-4.515,-6.585
'0:13.642',-4.995,-6.555
'0:13.644',-5.505,-6.505
'0:13.647',-5.905,-6.445
'0:13.650',-6.100,-6.365
'0:13.653',-6.135,-6.275
'0:13.656',-6.010,-6.195
'0:13.658',-5.885,-6.100
'0:13.661',-5.770,-6.020
'0:13.664',-5.725,-5.940
'0:13.667',-5.765,-5.870
'0:13.669',-5.815,-5.805
'0:13.672',-5.860,-5.735
'0:13.675',-5.945,-5.695
'0:13.678',-5.975,-5.665
'0:13.681',-6.015,-5.655
'0:13.683',-6.025,-5.655
'0:13.686',-6.015,-5.665
'0:13.689',-6.010,-5.655
'0:13.692',-6.015,-5.640
'0:13.694',-6.040,-5.635
'0:13.697',-6.025,-5.620
'0:13.700',-6.015,-5.595
'0:13.703',-6.010,-5.590
'0:13.706',-6.020,-5.590
'0:13.708',-6.020,-5.580
'0:13.711',-6.030,-5.580
'0:13.714',-6.035,-5.590
'0:13.717',-6.040,-5.600
'0:13.719',-6.045,-5.605
'0:13.722',-6.065,-5.605
'0:13.725',-6.060,-5.600
'0:13.728',-6.080,-5.590
'0:13.731',-6.075,-5.570
'0:13.733',-6.055,-5.580
'0:13.736',-6.055,-5.565
'0:13.739',-6.045,-5.565
'0:13.742',-6.045,-5.570
'0:13.744',-6.035,-5.565
'0:13.747',-6.045,-5.570
'0:13.750',-6.065,-5.580
'0:13.753',-6.065,-5.600
'0:13.756',-6.065,-5.590
'0:13.758',-6.060,-5.580
'0:13.761',-6.055,-5.570
'0:13.764',-6.045,-5.570
'0:13.767',-6.040,-5.550
'0:13.769',-6.030,-5.540
'0:13.772',-6.040,-5.550
'0:13.775',-6.025,-5.540
'0:13.778',-6.025,-5.540
'0:13.781',-6.035,-5.560
'0:13.783',-6.055,-5.565
'0:13.786',-6.065,-5.580
'0:13.789',-6.050,-5.585
'0:13.792',-6.060,-5.565
'0:13.794',-6.050,-5.545
'0:13.797',-6.030,-5.540
'0:13.800',-6.020,-5.525
'0:13.803',-6.015,-5.520
'0:13.806',-5.985,-5.515
'0:13.808',-5.990,-5.510
'0:13.811',-6.000,-5.500
'0:13.814',-5.995,-5.510
'0:13.817',-6.010,-5.530
'0:13.819',-6.005,-5.530
'0:13.822',-6.010,-5.555
'0:13.825',-6.000,-5.525
'0:13.828',-6.005,-5.515
'0:13.831',-5.990,-5.510
'0:13.833',-5.965,-5.510
'0:13.836',-5.950,-5.490
'0:13.839',-5.950,-5.495
'0:13.842',-5.955,-5.510
'0:13.844',-5.965,-5.510
'0:13.847',-5.965,-5.520
'0:13.850',-5.940,-5.510
'0:13.853',-5.930,-5.530
'0:13.856',-5.940,-5.515
'0:13.858',-5.945,-5.525
'0:13.861',-5.920,-5.495
'0:13.864',-5.875,-5.490
'0:13.867',-5.860,-5.470
'0:13.869',-5.830,-5.455
'0:13.872',-5.810,-5.455
'0:13.875',-5.800,-5.465
'0:13.878',-5.785,-5.460
'0:13.881',-5.760,-5.460
'0:13.883',-5.770,-5.475
'0:13.886',-5.755,-5.490
'0:13.889',-5.735,-5.485
'0:13.892',-5.735,-5.465
'0:13.894',-5.710,-5.465
'0:13.897',-5.680,-5.465
'0:13.900',-5.655,-5.470
'0:13.903',-5.640,-5.460
'0:13.906',-5.615,-5.460
'0:13.908',-5.605,-5.465
'0:13.911',-5.575,-5.475
'0:13.914',-5.565,-5.500
'0:13.917',-5.565,-5.505
'0:13.919',-5.555,-5.515
'0:13.922',-5.535,-5.515
'0:13.925',-5.530,-5.510
'0:13.928',-5.510,-5.495
'0:13.931',-5.480,-5.485
'0:13.933',-5.465,-5.500
'0:13.936',-5.455,-5.490
'0:13.939',-5.420,-5.490
'0:13.942',-5.415,-5.505
'0:13.944',-5.400,-5.495
'0:13.947',-5.415,-5.520
'0:13.950',-5.420,-5.535
'0:13.953',-5.420,-5.535
'0:13.956',-5.425,-5.560
'0:13.958',-5.445,-5.565
'0:13.961',-5.445,-5.550
'0:13.964',-5.470,-5.540
'0:13.967',-5.470,-5.535
'0:13.969',-5.500,-5.535
'0:13.972',-5.510,-5.535
'0:13.975',-5.530,-5.530
'0:13.978',-5.575,-5.545
'0:13.981',-5.605,-5.545
'0:13.983',-5.630,-5.550
'0:13.986',-5.660,-5.555
'0:13.989',-5.690,-5.565
'0:13.992',-5.725,-5.570
'0:13.994',-5.735,-5.545
'0:13.997',-5.760,-5.550
'0:14.000',-5.760,-5.550
'0:14.003',-5.795,-5.540
'0:14.006',-5.780,-5.535
'0:14.008',-5.800,-5.545
'0:14.011',-5.835,-5.550
'0:14.014',-5.840,-5.560
'0:14.017',-5.865,-5.570
'0:14.019',-5.875,-5.600
'0:14.022',-5.885,-5.605
'0:14.025',-5.905,-5.605
'0:14.028',-5.895,-5.605
'0:14.031',-5.905,-5.585
'0:14.033',-5.915,-5.565
'0:14.036',-5.905,-5.565
'0:14.039',-5.900,-5.555
'0:14.042',-5.905,-5.560
'0:14.044',-5.910,-5.575
'0:14.047',-5.910,-5.575
'0:14.050',-5.910,-5.580
'0:14.053',-5.900,-5.575
'0:14.056',-5.915,-5.585
'0:14.058',-5.925,-5.595
'0:14.061',-5.915,-5.570
'0:14.064',-5.910,-5.580
'0:14.067',-5.905,-5.575
'0:14.069',-5.890,-5.570
'0:14.072',-5.885,-5.565
'0:14.075',-5.895,-5.560
'0:14.078',-5.890,-5.560
'0:14.081',-5.900,-5.585
'0:14.083',-5.905,-5.600
'0:14.086',-5.900,-5.605
'0:14.089',-5.905,-5.625
'0:14.092',-5.900,-5.620
'0:14.094',-5.905,-5.615
'0:14.097',-5.895,-5.590
'0:14.100',-5.875,-5.585
'0:14.103',-5.860,-5.580
'0:14.106',-5.865,-5.570
'0:14.108',-5.860,-5.565
'0:14.111',-5.870,-5.560
'0:14.114',-5.870,-5.590
'0:14.117',-5.880,-5.590
'0:14.119',-5.890,-5.600
'0:14.122',-5.905,-5.615
'0:14.125',-5.895,-5.610
'0:14.128',-5.895,-5.600
'0:14.131',-5.865,-5.605
'0:14.133',-5.860,-5.570
'0:14.136',-5.850,-5.575
'0:14.139',-5.845,-5.575
'0:14.142',-5.840,-5.580
'0:14.144',-5.840,-5.595
'0:14.147',-5.860,-5.590
'0:14.150',-5.895,-5.610
'0:14.153',-5.890,-5.615
'0:14.156',-5.885,-5.625
'0:14.158',-5.900,-5.605
'0:14.161',-5.910,-5.625
'0:14.164',-5.895,-5.610
'0:14.167',-5.885,-5.600
'0:14.169',-5.880,-5.585
'0:14.172',-5.875,-5.575
'0:14.175',-5.880,-5.590
'0:14.178',-5.895,-5.610
'0:14.181',-5.895,-5.600
'0:14.183',-5.920,-5.620
'0:14.186',-5.920,-5.615
'0:14.189',-5.905,-5.610
'0:14.192',-5.930,-5.605
'0:14.194',-5.925,-5.610
'0:14.197',-5.920,-5.595
'0:14.200',-5.920,-5.590
'0:14.203',-5.910,-5.575
'0:14.206',-5.905,-5.585
'0:14.208',-5.905,-5.585
'0:14.211',-5.915,-5.590
'0:14.214',-5.930,-5.605
'0:14.217',-5.940,-5.600
'0:14.219',-5.945,-5.605
'0:14.222',-5.955,-5.620
'0:14.225',-5.970,-5.615
'0:14.228',-5.980,-5.620
'0:14.231',-5.955,-5.595
'0:14.233',-5.945,-5.590
'0:14.236',-5.930,-5.570
'0:14.239',-5.930,-5.560
'0:14.242',-5.925,-5.570
'0:14.244',-5.950,-5.575
'0:14.247',-5.960,-5.590
'0:14.250',-5.965,-5.605
'0:14.253',-5.965,-5.620
'0:14.256',-5.975,-5.625
'0:14.258',-5.985,-5.620
'0:14.261',-5.975,-5.620
'0:14.264',-5.965,-5.600
'0:14.267',-5.960,-5.605
'0:14.269',-5.955,-5.600
'0:14.272',-5.945,-5.595
'0:14.275',-5.950,-5.595
'0:14.278',-5.950,-5.600
'0:14.281',-5.955,-5.620
'0:14.283',-5.960,-5.640
'0:14.286',-5.960,-5.625
'0:14.289',-5.970,-5.635
'0:14.292',-5.970,-5.630
'0:14.294',-5.980,-5.615
'0:14.297',-5.960,-5.600
'0:14.300',-5.970,-5.615
'0:14.303',-5.950,-5.575
'0:14.306',-5.945,-5.590
'0:14.308',-5.960,-5.600
'0:14.311',-5.955,-5.595
'0:14.314',-5.970,-5.615
'0:14.317',-5.975,-5.630
'0:14.319',-5.985,-5.630
'0:14.322',-5.985,-5.635
'0:14.325',-5.980,-5.630
'0:14.328',-5.980,-5.630
'0:14.331',-5.965,-5.620
'0:14.333',-5.955,-5.620
'0:14.336',-5.960,-5.610
'0:14.339',-5.960,-5.610
'0:14.342',-5.955,-5.610
'0:14.344',-5.955,-5.620
'0:14.347',-5.960,-5.625
'0:14.350',-5.970,-5.625
'0:14.353',-5.965,-5.635
'0:14.356',-5.960,-5.625
'0:14.358',-5.950,-5.610
'0:14.361',-5.910,-5.595
'0:14.364',-5.895,-5.560
'0:14.367',-5.865,-5.555
'0:14.369',-5.845,-5.535
'0:14.372',-5.830,-5.525
'0:14.375',-5.810,-5.530
'0:14.378',-5.800,-5.520
'0:14.381',-5.795,-5.525
'0:14.383',-5.790,-5.530
'0:14.386',-5.755,-5.535
'0:14.389',-5.705,-5.540
'0:14.392',-5.675,-5.535
'0:14.394',-5.640,-5.565
'0:14.397',-5.620,-5.565
'0:14.400',-5.610,-5.570
'0:14.403',-5.630,-5.585
'0:14.406',-5.630,-5.600
'0:14.408',-5.635,-5.615
'0:14.411',-5.640,-5.620
'0:14.414',-5.650,-5.625
'0:14.417',-5.680,-5.640
'0:14.419',-5.710,-5.660
'0:14.422',-5.755,-5.670
'0:14.425',-5.805,-5.670
'0:14.428',-5.855,-5.675
'0:14.431',-5.900,-5.660
'0:14.433',-5.945,-5.635
'0:14.436',-5.970,-5.615
'0:14.439',-5.965,-5.640
'0:14.442',-5.980,-5.630
'0:14.444',-6.005,-5.645
'0:14.447',-6.020,-5.660
'0:14.450',-6.035,-5.685
'0:14.453',-6.025,-5.695
'0:14.456',-6.010,-5.700
'0:14.458',-6.025,-5.700
'0:14.461',-6.015,-5.690
'0:14.464',-6.020,-5.680
'0:14.467',-6.020,-5.675
'0:14.469',-6.015,-5.655
'0:14.472',-6.020,-5.645
'0:14.475',-6.025,-5.650
'0:14.478',-6.025,-5.640
'0:14.481',-6.035,-5.655
'0:14.483',-6.040,-5.665
'0:14.486',-6.040,-5.685
'0:14.489',-6.055,-5.685
'0:14.492',-6.055,-5.685
'0:14.494',-6.045,-5.675
'0:14.497',-6.040,-5.650
'0:14.500',-6.020,-5.650
'0:14.503',-6.010,-5.650
'0:14.506',-6.005,-5.645
'0:14.508',-5.995,-5.665
'0:14.511',-5.995,-5.650
'0:14.514',-6.000,-5.670
'0:14.517',-6.030,-5.665
'0:14.519',-6.050,-5.680
'0:14.522',-6.090,-5.660
'0:14.525',-6.110,-5.610
'0:14.528',-6.070,-5.580
'0:14.531',-5.980,-5.495
'0:14.533',-5.815,-5.440
'0:14.536',-5.585,-5.430
'0:14.539',-5.280,-5.470
'0:14.542',-4.915,-5.575
'0:14.544',-4.530,-5.730
'0:14.547',-4.175,-5.950
'0:14.550',-3.945,-6.195
'0:14.553',-3.810,-6.425
'0:14.556',-3.805,-6.590
'0:14.558',-3.925,-6.680
'0:14.561',-4.155,-6.710
'0:14.564',-4.535,-6.645
'0:14.567',-5.045,-6.570
'0:14.569',-5.555,-6.495
'0:14.572',-5.945,-6.420
'0:14.575',-6.145,-6.330
'0:14.578',-6.160,-6.235
'0:14.581',-6.040,-6.150
'0:14.583',-5.910,-6.070
'0:14.586',-5.820,-6.020
'0:14.589',-5.780,-5.960
'0:14.592',-5.800,-5.905
'0:14.594',-5.860,-5.830
'0:14.597',-5.930,-5.750
'0:14.600',-5.970,-5.705
'0:14.603',-6.010,-5.655
'0:14.606',-6.010,-5.630
'0:14.608',-6.015,-5.630
'0:14.611',-6.005,-5.625
'0:14.614',-6.010,-5.635
'0:14.617',-6.020,-5.625
'0:14.619',-6.025,-5.640
'0:14.622',-6.040,-5.630
'0:14.625',-6.070,-5.620
'0:14.628',-6.045,-5.610
'0:14.631',-6.035,-5.590
'0:14.633',-6.025,-5.590
'0:14.636',-6.035,-5.570
'0:14.639',-6.035,-5.580
'0:14.642',-6.025,-5.580
'0:14.644',-6.020,-5.580
'0:14.647',-6.045,-5.585
'0:14.650',-6.055,-5.570
'0:14.653',-6.055,-5.600
'0:14.656',-6.055,-5.585
'0:14.658',-6.060,-5.590
'0:14.661',-6.065,-5.565
'0:14.664',-6.040,-5.565
'0:14.667',-6.035,-5.555
'0:14.669',-6.040,-5.545
'0:14.672',-6.050,-5.535
'0:14.675',-6.040,-5.545
'0:14.678',-6.060,-5.540
'0:14.681',-6.055,-5.555
'0:14.683',-6.070,-5.565
'0:14.686',-6.080,-5.580
'0:14.689',-6.090,-5.585
'0:14.692',-6.075,-5.570
'0:14.694',-6.070,-5.575
'0:14.697',-6.055,-5.565
'0:14.700',-6.055,-5.560
'0:14.703',-6.045,-5.540
'0:14.706',-6.020,-5.540
'0:14.708',-6.025,-5.540
'0:14.711',-6.015,-5.535
'0:14.714',-6.040,-5.560
'0:14.717',-6.045,-5.550
'0:14.719',-6.050,-5.555
'0:14.722',-6.050,-5.545
'0:14.725',-6.050,-5.550
'0:14.728',-6.035,-5.545
'0:14.731',-6.030,-5.535
'0:14.733',-6.020,-5.530
'0:14.736',-6.010,-5.525
'0:14.739',-5.980,-5.525
'0:14.742',-5.975,-5.525
'0:14.744',-5.975,-5.520
'0:14.747',-5.965,-5.540
'0:14.750',-5.975,-5.545
'0:14.753',-5.980,-5.545
'0:14.756',-5.960,-5.560
'0:14.758',-5.975,-5.550
'0:14.761',-5.950,-5.550
'0:14.764',-5.935,-5.540
'0:14.767',-5.905,-5.535
'0:14.769',-5.900,-5.525
'0:14.772',-5.875,-5.515
'0:14.775',-5.870,-5.515
'0:14.778',-5.865,-5.515
'0:14.781',-5.830,-5.520
'0:14.783',-5.835,-5.525
'0:14.786',-5.820,-5.540
'0:14.789',-5.805,-5.555
'0:14.792',-5.775,-5.545
'0:14.794',-5.775,-5.545
'0:14.797',-5.755,-5.540
'0:14.800',-5.725,-5.520
'0:14.803',-5.695,-5.530
'0:14.806',-5.655,-5.510
'0:14.808',-5.615,-5.520
'0:14.811',-5.615,-5.535
'0:14.814',-5.605,-5.550
'0:14.817',-5.585,-5.560
'0:14.819',-5.570,-5.575
'0:14.822',-5.570,-5.575
'0:14.825',-5.570,-5.575
'0:14.828',-5.555,-5.585
'0:14.831',-5.515,-5.570
'0:14.833',-5.495,-5.560
'0:14.836',-5.465,-5.545
'0:14.839',-5.470,-5.545
'0:14.842',-5.470,-5.555
'0:14.844',-5.455,-5.555
'0:14.847',-5.465,-5.570
'0:14.850',-5.450,-5.575
'0:14.853',-5.445,-5.605
'0:14.856',-5.450,-5.615
'0:14.858',-5.455,-5.610
'0:14.861',-5.475,-5.605
'0:14.864',-5.465,-5.600
'0:14.867',-5.470,-5.580
'0:14.869',-5.480,-5.575
'0:14.872',-5.500,-5.575
'0:14.875',-5.515,-5.560
'0:14.878',-5.545,-5.565
'0:14.881',-5.575,-5.580
'0:14.883',-5.615,-5.590
'0:14.886',-5.670,-5.600
'0:14.889',-5.705,-5.575
'0:14.892',-5.740,-5.575
'0:14.894',-5.765,-5.565
'0:14.897',-5.785,-5.545
'0:14.900',-5.830,-5.545
'0:14.903',-5.830,-5.535
'0:14.906',-5.835,-5.535
'0:14.908',-5.850,-5.525
'0:14.911',-5.890,-5.530
'0:14.914',-5.910,-5.560
'0:14.917',-5.935,-5.560
'0:14.919',-5.965,-5.575
'0:14.922',-5.985,-5.560
'0:14.925',-6.005,-5.575
'0:14.928',-6.005,-5.575
'0:14.931',-6.015,-5.580
'0:14.933',-6.010,-5.560
'0:14.936',-6.010,-5.565
'0:14.939',-6.000,-5.555
'0:14.942',-6.015,-5.550
'0:14.944',-6.025,-5.565
'0:14.947',-6.025,-5.565
'0:14.950',-6.035,-5.590
'0:14.953',-6.040,-5.590
'0:14.956',-6.050,-5.590
'0:14.958',-6.055,-5.585
'0:14.961',-6.065,-5.585
'0:14.964',-6.060,-5.570
'0:14.967',-6.045,-5.560
'0:14.969',-6.045,-5.565
'0:14.972',-6.020,-5.555
'0:14.975',-6.045,-5.550
'0:14.978',-6.050,-5.555
'0:14.981',-6.030,-5.560
'0:14.983',-6.030,-5.575
'0:14.986',-6.035,-5.580
'0:14.989',-6.040,-5.595
'0:14.992',-6.035,-5.585
'0:14.994',-6.035,-5.590
'0:14.997',-6.055,-5.590
'0:15.000',-6.020,-5.585
'0:15.003',-6.015,-5.565
'0:15.006',-6.005,-5.560
'0:15.008',-6.005,-5.565
'0:15.011',-6.000,-5.565
'0:15.014',-6.025,-5.560
'0:15.017',-6.025,-5.570
'0:15.019',-6.015,-5.575
'0:15.022',-6.025,-5.575
'0:15.025',-6.025,-5.570
'0:15.028',-6.005,-5.575
'0:15.031',-5.985,-5.570
'0:15.033',-5.985,-5.560
'0:15.036',-5.980,-5.550
'0:15.039',-5.955,-5.550
'0:15.042',-5.965,-5.545
'0:15.044',-5.960,-5.565
'0:15.047',-5.975,-5.565
'0:15.050',-5.995,-5.575
'0:15.053',-6.015,-5.580
'0:15.056',-6.000,-5.595
'0:15.058',-6.015,-5.595
'0:15.061',-6.025,-5.585
'0:15.064',-6.005,-5.575
'0:15.067',-5.990,-5.575
'0:15.069',-5.990,-5.565
'0:15.072',-6.000,-5.550
'0:15.075',-5.980,-5.560
'0:15.078',-5.995,-5.560
'0:15.081',-6.000,-5.580
'0:15.083',-5.990,-5.575
'0:15.086',-6.005,-5.575
'0:15.089',-6.010,-5.585
'0:15.092',-6.010,-5.590
'0:15.094',-6.025,-5.575
'0:15.097',-6.005,-5.570
'0:15.100',-5.995,-5.570
'0:15.103',-6.015,-5.575
'0:15.106',-5.995,-5.555
'0:15.108',-5.990,-5.565
'0:15.111',-5.995,-5.565
'0:15.114',-6.005,-5.570
'0:15.117',-6.025,-5.580
'0:15.119',-6.040,-5.595
'0:15.122',-6.060,-5.595
'0:15.125',-6.045,-5.600
'0:15.128',-6.040,-5.590
'0:15.131',-6.040,-5.580
'0:15.133',-6.025,-5.580
'0:15.136',-6.020,-5.560
'0:15.139',-6.000,-5.550
'0:15.142',-6.005,-5.555
'0:15.144',-6.015,-5.560
'0:15.147',-6.020,-5.570
'0:15.150',-6.025,-5.565
'0:15.153',-6.035,-5.580
'0:15.156',-6.045,-5.605
'0:15.158',-6.050,-5.615
'0:15.161',-6.050,-5.595
'0:15.164',-6.055,-5.600
'0:15.167',-6.045,-5.575
'0:15.169',-6.035,-5.590
'0:15.172',-6.025,-5.570
'0:15.175',-6.020,-5.565
'0:15.178',-6.015,-5.585
'0:15.181',-6.035,-5.595
'0:15.183',-6.045,-5.595
'0:15.186',-6.040,-5.625
'0:15.189',-6.055,-5.615
'0:15.192',-6.070,-5.615
'0:15.194',-6.075,-5.605
'0:15.197',-6.055,-5.585
'0:15.200',-6.040,-5.575
'0:15.203',-6.030,-5.565
'0:15.206',-6.015,-5.560
'0:15.208',-6.010,-5.555
'0:15.211',-6.010,-5.550
'0:15.214',-6.005,-5.565
'0:15.217',-6.000,-5.575
'0:15.219',-5.990,-5.580
'0:15.222',-5.985,-5.595
'0:15.225',-5.980,-5.580
'0:15.228',-5.950,-5.550
'0:15.231',-5.945,-5.535
'0:15.233',-5.925,-5.540
'0:15.236',-5.900,-5.505
'0:15.239',-5.880,-5.505
'0:15.242',-5.880,-5.505
'0:15.244',-5.860,-5.530
'0:15.247',-5.850,-5.515
'0:15.250',-5.825,-5.525
'0:15.253',-5.810,-5.515
'0:15.256',-5.765,-5.525
'0:15.258',-5.740,-5.515
'0:15.261',-5.705,-5.515
'0:15.264',-5.700,-5.520
'0:15.267',-5.695,-5.515
'0:15.269',-5.700,-5.540
'0:15.272',-5.705,-5.545
'0:15.275',-5.700,-5.565
'0:15.278',-5.720,-5.585
'0:15.281',-5.705,-5.615
'0:15.283',-5.725,-5.620
'0:15.286',-5.740,-5.630
'0:15.289',-5.775,-5.645
'0:15.292',-5.825,-5.655
'0:15.294',-5.860,-5.640
'0:15.297',-5.910,-5.635
'0:15.300',-5.950,-5.635
'0:15.303',-6.000,-5.610
'0:15.306',-6.020,-5.595
'0:15.308',-6.035,-5.600
'0:15.311',-6.055,-5.615
'0:15.314',-6.055,-5.615
'0:15.317',-6.060,-5.635
'0:15.319',-6.080,-5.645
'0:15.322',-6.080,-5.635
'0:15.325',-6.075,-5.650
'0:15.328',-6.080,-5.645
'0:15.331',-6.075,-5.635
'0:15.333',-6.075,-5.625
'0:15.336',-6.090,-5.615
'0:15.339',-6.070,-5.615
'0:15.342',-6.085,-5.615
'0:15.344',-6.085,-5.620
'0:15.347',-6.090,-5.635
'0:15.350',-6.100,-5.625
'0:15.353',-6.090,-5.640
'0:15.356',-6.095,-5.655
'0:15.358',-6.085,-5.670
'0:15.361',-6.090,-5.655
'0:15.364',-6.075,-5.650
'0:15.367',-6.055,-5.640
'0:15.369',-6.040,-5.625
'0:15.372',-6.035,-5.625
'0:15.375',-6.055,-5.635
'0:15.378',-6.065,-5.630
'0:15.381',-6.070,-5.625
'0:15.383',-6.105,-5.620
'0:15.386',-6.120,-5.635
'0:15.389',-6.150,-5.625
'0:15.392',-6.135,-5.590
'0:15.394',-6.120,-5.555
'0:15.397',-6.050,-5.505
'0:15.400',-5.925,-5.445
'0:15.403',-5.750,-5.410
'0:15.406',-5.505,-5.435
'0:15.408',-5.200,-5.495
'0:15.411',-4.850,-5.600
'0:15.414',-4.485,-5.750
'0:15.417',-4.185,-5.960
'0:15.419',-3.965,-6.180
'0:15.422',-3.885,-6.375
'0:15.425',-3.890,-6.530
'0:15.428',-4.010,-6.600
'0:15.431',-4.270,-6.600
'0:15.433',-4.680,-6.575
'0:15.436',-5.210,-6.515
'0:15.439',-5.705,-6.420
'0:15.442',-6.050,-6.345
'0:15.444',-6.220,-6.255
'0:15.447',-6.190,-6.175
'0:15.450',-6.070,-6.110
'0:15.453',-5.940,-6.040
'0:15.456',-5.865,-5.985
'0:15.458',-5.855,-5.905
'0:15.461',-5.895,-5.840
'0:15.464',-5.950,-5.790
'0:15.467',-5.990,-5.730
'0:15.469',-6.035,-5.675
'0:15.472',-6.045,-5.635
'0:15.475',-6.050,-5.630
'0:15.478',-6.065,-5.640
'0:15.481',-6.065,-5.640
'0:15.483',-6.075,-5.645
'0:15.486',-6.080,-5.645
'0:15.489',-6.080,-5.650
'0:15.492',-6.085,-5.645
'0:15.494',-6.090,-5.635
'0:15.497',-6.085,-5.615
'0:15.500',-6.065,-5.600
'0:15.503',-6.060,-5.575
'0:15.506',-6.055,-5.575
'0:15.508',-6.055,-5.565
'0:15.511',-6.070,-5.575
'0:15.514',-6.075,-5.575
'0:15.517',-6.085,-5.590
'0:15.519',-6.085,-5.585
'0:15.522',-6.100,-5.600
'0:15.525',-6.120,-5.590
'0:15.528',-6.110,-5.605
'0:15.531',-6.105,-5.600
'0:15.533',-6.085,-5.575
'0:15.536',-6.100,-5.575
'0:15.539',-6.095,-5.555
'0:15.542',-6.105,-5.555
'0:15.544',-6.075,-5.555
'0:15.547',-6.075,-5.575
'0:15.550',-6.080,-5.580
'0:15.553',-6.080,-5.585
'0:15.556',-6.095,-5.590
'0:15.558',-6.080,-5.595
'0:15.561',-6.080,-5.585
'0:15.564',-6.090,-5.565
'0:15.567',-6.055,-5.540
'0:15.569',-6.065,-5.530
'0:15.572',-6.045,-5.515
'0:15.575',-6.040,-5.530
'0:15.578',-6.045,-5.535
'0:15.581',-6.035,-5.550
'0:15.583',-6.040,-5.565
'0:15.586',-6.050,-5.550
'0:15.589',-6.060,-5.570
'0:15.592',-6.075,-5.565
'0:15.594',-6.055,-5.560
'0:15.597',-6.065,-5.550
'0:15.600',-6.025,-5.530
'0:15.603',-6.010,-5.530
'0:15.606',-5.985,-5.525
'0:15.608',-5.975,-5.535
'0:15.611',-6.005,-5.535
'0:15.614',-6.005,-5.535
'0:15.617',-6.015,-5.545
'0:15.619',-5.985,-5.550
'0:15.622',-5.990,-5.560
'0:15.625',-5.980,-5.565
'0:15.628',-5.970,-5.550
'0:15.631',-5.950,-5.535
'0:15.633',-5.940,-5.520
'0:15.636',-5.910,-5.500
'0:15.639',-5.900,-5.500
'0:15.642',-5.885,-5.510
'0:15.644',-5.880,-5.515
'0:15.647',-5.875,-5.535
'0:15.650',-5.865,-5.520
'0:15.653',-5.875,-5.530
'0:15.656',-5.865,-5.530
'0:15.658',-5.845,-5.540
'0:15.661',-5.835,-5.525
'0:15.664',-5.810,-5.530
'0:15.667',-5.775,-5.520
'0:15.669',-5.760,-5.515
'0:15.672',-5.740,-5.515
'0:15.675',-5.705,-5.525
'0:15.678',-5.695,-5.535
'0:15.681',-5.685,-5.515
'0:15.683',-5.660,-5.545
'0:15.686',-5.655,-5.555
'0:15.689',-5.630,-5.550
'0:15.692',-5.625,-5.550
'0:15.694',-5.610,-5.550
'0:15.697',-5.590,-5.545
'0:15.700',-5.545,-5.525
'0:15.703',-5.540,-5.515
'0:15.706',-5.515,-5.510
'0:15.708',-5.500,-5.525
'0:15.711',-5.495,-5.540
'0:15.714',-5.490,-5.540
'0:15.717',-5.500,-5.555
'0:15.719',-5.480,-5.545
'0:15.722',-5.475,-5.570
'0:15.725',-5.465,-5.575
'0:15.728',-5.465,-5.580
'0:15.731',-5.450,-5.575
'0:15.733',-5.435,-5.570
'0:15.736',-5.435,-5.560
'0:15.739',-5.435,-5.555
'0:15.742',-5.445,-5.555
'0:15.744',-5.475,-5.565
'0:15.747',-5.520,-5.560
'0:15.750',-5.545,-5.585
'0:15.753',-5.595,-5.565
'0:15.756',-5.600,-5.560
'0:15.758',-5.640,-5.570
'0:15.761',-5.670,-5.555
'0:15.764',-5.700,-5.540
'0:15.767',-5.730,-5.520
'0:15.769',-5.745,-5.525
'0:15.772',-5.775,-5.495
'0:15.775',-5.795,-5.510
'0:15.778',-5.815,-5.530
'0:15.781',-5.865,-5.525
'0:15.783',-5.885,-5.550
'0:15.786',-5.905,-5.570
'0:15.789',-5.920,-5.565
'0:15.792',-5.945,-5.565
'0:15.794',-5.955,-5.565
'0:15.797',-5.960,-5.570
'0:15.800',-5.980,-5.560
'0:15.803',-5.980,-5.550
'0:15.806',-5.960,-5.540
'0:15.808',-5.965,-5.540
'0:15.811',-5.975,-5.570
'0:15.814',-6.000,-5.555
'0:15.817',-6.010,-5.580
'0:15.819',-6.020,-5.585
'0:15.822',-6.025,-5.575
'0:15.825',-6.015,-5.605
'0:15.828',-6.030,-5.565
'0:15.831',-6.045,-5.590
'0:15.833',-6.025,-5.570
'0:15.836',-6.025,-5.565
'0:15.839',-6.015,-5.555
'0:15.842',-6.015,-5.550
'0:15.844',-6.020,-5.560
'0:15.847',-6.025,-5.565
'0:15.850',-6.025,-5.570
'0:15.853',-6.055,-5.590
'0:15.856',-6.070,-5.585
'0:15.858',-6.060,-5.590
'0:15.861',-6.055,-5.595
'0:15.864',-6.060,-5.585
'0:15.867',-6.040,-5.585
'0:15.869',-6.015,-5.570
'0:15.872',-6.015,-5.560
'0:15.875',-6.005,-5.545
'0:15.878',-6.000,-5.555
'0:15.881',-6.005,-5.560
'0:15.883',-6.015,-5.570
'0:15.886',-6.020,-5.585
'0:15.889',-6.020,-5.590
'0:15.892',-6.010,-5.585
'0:15.894',-6.015,-5.595
'0:15.897',-6.015,-5.590
'0:15.900',-6.000,-5.565
'0:15.903',-5.995,-5.565
'0:15.906',-5.985,-5.555
'0:15.908',-5.970,-5.570
'0:15.911',-5.965,-5.575
'0:15.914',-5.960,-5.580
'0:15.917',-5.975,-5.605
'0:15.919',-5.985,-5.605
'0:15.922',-5.980,-5.615
'0:15.925',-5.975,-5.615
'0:15.928',-5.975,-5.610
'0:15.931',-5.975,-5.600
'0:15.933',-5.960,-5.595
'0:15.936',-5.955,-5.575
'0:15.939',-5.940,-5.575
'0:15.942',-5.945,-5.575
'0:15.944',-5.950,-5.570
'0:15.947',-5.950,-5.590
'0:15.950',-5.965,-5.605
'0:15.953',-5.965,-5.605
'0:15.956',-5.985,-5.610
'0:15.958',-5.980,-5.610
'0:15.961',-5.975,-5.595
'0:15.964',-5.985,-5.600
'0:15.967',-5.965,-5.595
'0:15.969',-5.965,-5.595
'0:15.972',-5.960,-5.575
'0:15.975',-5.965,-5.580
'0:15.978',-5.970,-5.595
'0:15.981',-5.985,-5.600
'0:15.983',-5.995,-5.625
'0:15.986',-6.000,-5.630
'0:15.989',-6.010,-5.650
'0:15.992',-6.030,-5.645
'0:15.994',-6.020,-5.655
'0:15.997',-6.000,-5.635
'0:16.000',-6.000,-5.620
'0:16.003',-6.010,-5.605
'0:16.006',-6.000,-5.590
'0:16.008',-5.980,-5.600
'0:16.011',-5.990,-5.590
'0:16.014',-6.000,-5.595
'0:16.017',-6.005,-5.605
'0:16.019',-6.020,-5.605
'0:16.022',-6.025,-5.625
'0:16.025',-6.035,-5.620
'0:16.028',-6.035,-5.610
'0:16.031',-6.040,-5.605
'0:16.033',-6.025,-5.605
'0:16.036',-6.010,-5.595
'0:16.039',-6.020,-5.585
'0:16.042',-6.020,-5.605
'0:16.044',-6.015,-5.595
'0:16.047',-6.025,-5.625
'0:16.050',-6.020,-5.615
'0:16.053',-6.035,-5.630
'0:16.056',-6.045,-5.635
'0:16.058',-6.055,-5.650
'0:16.061',-6.040,-5.640
'0:16.064',-6.035,-5.630
'0:16.067',-6.030,-5.610
'0:16.069',-6.030,-5.600
'0:16.072',-6.015,-5.590
'0:16.075',-6.015,-5.605
'0:16.078',-6.020,-5.590
'0:16.081',-6.025,-5.605
'0:16.083',-6.025,-5.615
'0:16.086',-6.050,-5.630
'0:16.089',-6.070,-5.635
'0:16.092',-6.080,-5.635
'0:16.094',-6.065,-5.630
'0:16.097',-6.045,-5.630
'0:16.100',-6.040,-5.615
'0:16.103',-6.035,-5.615
'0:16.106',-6.020,-5.610
'0:16.108',-6.015,-5.600
'0:16.111',-6.020,-5.610
'0:16.114',-6.020,-5.610
'0:16.117',-6.035,-5.635
'0:16.119',-6.050,-5.635
'0:16.122',-6.050,-5.635
'0:16.125',-6.020,-5.640
'0:16.128',-6.035,-5.620
'0:16.131',-6.020,-5.595
'0:16.133',-5.985,-5.580
'0:16.136',-5.935,-5.555
'0:16.139',-5.905,-5.545
'0:16.142',-5.900,-5.545
'0:16.144',-5.875,-5.545
'0:16.147',-5.865,-5.545
'0:16.150',-5.865,-5.530
'0:16.153',-5.860,-5.550
'0:16.156',-5.850,-5.545
'0:16.158',-5.835,-5.535
'0:16.161',-5.805,-5.530
'0:16.164',-5.775,-5.525
'0:16.167',-5.720,-5.520
'0:16.169',-5.675,-5.515
'0:16.172',-5.645,-5.535
'0:16.175',-5.655,-5.570
'0:16.178',-5.675,-5.600
'0:16.181',-5.695,-5.625
'0:16.183',-5.705,-5.645
'0:16.186',-5.720,-5.655
'0:16.189',-5.725,-5.660
'0:16.192',-5.725,-5.640
'0:16.194',-5.740,-5.655
'0:16.197',-5.740,-5.650
'0:16.200',-5.765,-5.650
'0:16.203',-5.800,-5.640
'0:16.206',-5.845,-5.635
'0:16.208',-5.915,-5.650
'0:16.211',-5.975,-5.640
'0:16.214',-6.035,-5.650
'0:16.217',-6.030,-5.645
'0:16.219',-6.040,-5.660
'0:16.222',-6.055,-5.655
'0:16.225',-6.075,-5.675
'0:16.228',-6.070,-5.675
'0:16.231',-6.070,-5.665
'0:16.233',-6.055,-5.655
'0:16.236',-6.070,-5.660
'0:16.239',-6.065,-5.640
'0:16.242',-6.060,-5.655
'0:16.244',-6.065,-5.660
'0:16.247',-6.075,-5.675
'0:16.250',-6.090,-5.675
'0:16.253',-6.095,-5.685
'0:16.256',-6.090,-5.675
'0:16.258',-6.105,-5.670
'0:16.261',-6.095,-5.680
'0:16.264',-6.100,-5.660
'0:16.267',-6.085,-5.660
'0:16.269',-6.075,-5.655
'0:16.272',-6.085,-5.655
'0:16.275',-6.090,-5.645
'0:16.278',-6.090,-5.645
'0:16.281',-6.085,-5.670
'0:16.283',-6.090,-5.670
'0:16.286',-6.095,-5.675
'0:16.289',-6.085,-5.665
'0:16.292',-6.080,-5.680
'0:16.294',-6.090,-5.670
'0:16.297',-6.085,-5.680
'0:16.300',-6.070,-5.670
'0:16.303',-6.105,-5.650
'0:16.306',-6.120,-5.625
'0:16.308',-6.125,-5.590
'0:16.311',-6.115,-5.560
'0:16.314',-6.050,-5.500
'0:16.317',-5.915,-5.455
'0:16.319',-5.735,-5.445
'0:16.322',-5.490,-5.465
'0:16.325',-5.150,-5.565
'0:16.328',-4.780,-5.695
'0:16.331',-4.395,-5.875
'0:16.333',-4.070,-6.090
'0:16.336',-3.855,-6.330
'0:16.339',-3.770,-6.515
'0:16.342',-3.780,-6.670
'0:16.344',-3.930,-6.740
'0:16.347',-4.200,-6.760
'0:16.350',-4.640,-6.735
'0:16.353',-5.150,-6.680
'0:16.356',-5.675,-6.605
'0:16.358',-6.050,-6.510
'0:16.361',-6.205,-6.405
'0:16.364',-6.180,-6.280
'0:16.367',-6.045,-6.160
'0:16.369',-5.895,-6.055
'0:16.372',-5.825,-5.980
'0:16.375',-5.800,-5.895
'0:16.378',-5.830,-5.830
'0:16.381',-5.895,-5.785
'0:16.383',-5.975,-5.735
'0:16.386',-6.040,-5.700
'0:16.389',-6.070,-5.685
'0:16.392',-6.080,-5.670
'0:16.394',-6.090,-5.670
'0:16.397',-6.085,-5.655
'0:16.400',-6.070,-5.630
'0:16.403',-6.065,-5.625
'0:16.406',-6.050,-5.605
'0:16.408',-6.065,-5.605
'0:16.411',-6.070,-5.615
'0:16.414',-6.070,-5.620
'0:16.417',-6.075,-5.605
'0:16.419',-6.085,-5.620
'0:16.422',-6.105,-5.620
'0:16.425',-6.105,-5.630
'0:16.428',-6.105,-5.630
'0:16.431',-6.095,-5.605
'0:16.433',-6.085,-5.610
'0:16.436',-6.075,-5.595
'0:16.439',-6.075,-5.585
'0:16.442',-6.060,-5.585
'0:16.444',-6.065,-5.585
'0:16.447',-6.070,-5.590
'0:16.450',-6.090,-5.600
'0:16.453',-6.085,-5.610
'0:16.456',-6.095,-5.615
'0:16.458',-6.110,-5.605
'0:16.461',-6.105,-5.595
'0:16.464',-6.085,-5.590
'0:16.467',-6.085,-5.580
'0:16.469',-6.080,-5.575
'0:16.472',-6.075,-5.555
'0:16.475',-6.060,-5.570
'0:16.478',-6.060,-5.580
'0:16.481',-6.070,-5.565
'0:16.483',-6.075,-5.580
'0:16.486',-6.075,-5.580
'0:16.489',-6.080,-5.605
'0:16.492',-6.080,-5.600
'0:16.494',-6.070,-5.615
'0:16.497',-6.075,-5.580
'0:16.500',-6.065,-5.595
'0:16.503',-6.060,-5.565
'0:16.506',-6.050,-5.540
'0:16.508',-6.055,-5.555
'0:16.511',-6.050,-5.560
'0:16.514',-6.045,-5.550
'0:16.517',-6.040,-5.555
'0:16.519',-6.040,-5.560
'0:16.522',-6.045,-5.585
'0:16.525',-6.035,-5.580
'0:16.528',-6.020,-5.575
'0:16.531',-6.010,-5.575
'0:16.533',-6.005,-5.560
'0:16.536',-5.975,-5.550
'0:16.539',-5.960,-5.545
'0:16.542',-5.965,-5.540
'0:16.544',-5.945,-5.535
'0:16.547',-5.935,-5.555
'0:16.550',-5.960,-5.555
'0:16.553',-5.955,-5.570
'0:16.556',-5.955,-5.565
'0:16.558',-5.950,-5.575
'0:16.561',-5.905,-5.555
'0:16.564',-5.895,-5.545
'0:16.567',-5.870,-5.540
'0:16.569',-5.850,-5.515
'0:16.572',-5.830,-5.490
'0:16.575',-5.800,-5.500
'0:16.578',-5.780,-5.495
'0:16.581',-5.755,-5.520
'0:16.583',-5.745,-5.520
'0:16.586',-5.740,-5.530
'0:16.589',-5.735,-5.545
'0:16.592',-5.710,-5.535
'0:16.594',-5.680,-5.535
'0:16.597',-5.670,-5.520
'0:16.600',-5.625,-5.500
'0:16.603',-5.615,-5.515
'0:16.606',-5.585,-5.500
'0:16.608',-5.540,-5.515
'0:16.611',-5.530,-5.525
'0:16.614',-5.515,-5.535
'0:16.617',-5.505,-5.550
'0:16.619',-5.495,-5.545
'0:16.622',-5.480,-5.555
'0:16.625',-5.480,-5.560
'0:16.628',-5.455,-5.560
'0:16.631',-5.440,-5.525
'0:16.633',-5.415,-5.530
'0:16.636',-5.400,-5.530
'0:16.639',-5.390,-5.520
'0:16.642',-5.390,-5.520
'0:16.644',-5.395,-5.550
'0:16.647',-5.380,-5.565
'0:16.650',-5.400,-5.570
'0:16.653',-5.430,-5.595
'0:16.656',-5.450,-5.605
'0:16.658',-5.470,-5.615
'0:16.661',-5.490,-5.595
'0:16.664',-5.500,-5.580
'0:16.667',-5.530,-5.565
'0:16.669',-5.555,-5.560
'0:16.672',-5.590,-5.540
'0:16.675',-5.605,-5.535
'0:16.678',-5.645,-5.540
'0:16.681',-5.670,-5.560
'0:16.683',-5.710,-5.565
'0:16.686',-5.745,-5.560
'0:16.689',-5.775,-5.570
'0:16.692',-5.815,-5.585
'0:16.694',-5.840,-5.570
'0:16.697',-5.850,-5.570
'0:16.700',-5.865,-5.550
'0:16.703',-5.875,-5.555
'0:16.706',-5.895,-5.535
'0:16.708',-5.895,-5.570
'0:16.711',-5.915,-5.580
'0:16.714',-5.925,-5.580
'0:16.717',-5.940,-5.600
'0:16.719',-5.955,-5.605
'0:16.722',-5.975,-5.610
'0:16.725',-5.990,-5.615
'0:16.728',-6.000,-5.605
'0:16.731',-5.995,-5.610
'0:16.733',-5.985,-5.605
'0:16.736',-5.980,-5.590
'0:16.739',-5.985,-5.585
'0:16.742',-5.980,-5.605
'0:16.744',-5.985,-5.595
'0:16.747',-5.995,-5.600
'0:16.750',-5.995,-5.610
'0:16.753',-6.010,-5.625
'0:16.756',-6.015,-5.605
'0:16.758',-6.010,-5.600
'0:16.761',-6.015,-5.610
'0:16.764',-6.030,-5.605
'0:16.767',-6.000,-5.585
'0:16.769',-6.000,-5.595
'0:16.772',-5.975,-5.595
'0:16.775',-5.980,-5.580
'0:16.778',-5.975,-5.585
'0:16.781',-5.975,-5.595
'0:16.783',-5.990,-5.615
'0:16.786',-6.000,-5.620
'0:16.789',-6.015,-5.630
'0:16.792',-6.010,-5.635
'0:16.794',-6.000,-5.645
'0:16.797',-5.995,-5.620
'0:16.800',-5.985,-5.605
'0:16.803',-5.965,-5.620
'0:16.806',-5.955,-5.600
'0:16.808',-5.950,-5.585
'0:16.811',-5.955,-5.595
'0:16.814',-5.955,-5.590
'0:16.817',-5.955,-5.590
'0:16.819',-5.955,-5.610
'0:16.822',-5.975,-5.620
'0:16.825',-6.000,-5.625
'0:16.828',-5.995,-5.620
'0:16.831',-5.980,-5.620
'0:16.833',-5.970,-5.615
'0:16.836',-5.955,-5.615
'0:16.839',-5.955,-5.610
'0:16.842',-5.940,-5.605
'0:16.844',-5.945,-5.610
'0:16.847',-5.945,-5.615
'0:16.850',-5.960,-5.625
'0:16.853',-5.965,-5.635
'0:16.856',-5.960,-5.650
'0:16.858',-5.975,-5.655
'0:16.861',-5.995,-5.645
'0:16.864',-6.000,-5.640
'0:16.867',-5.985,-5.625
'0:16.869',-5.990,-5.625
'0:16.872',-5.965,-5.620
'0:16.875',-5.960,-5.605
'0:16.878',-5.980,-5.600
'0:16.881',-5.960,-5.605
'0:16.883',-5.975,-5.630
'0:16.886',-5.985,-5.640
'0:16.889',-5.985,-5.655
'0:16.892',-5.995,-5.650
'0:16.894',-6.005,-5.640
'0:16.897',-5.995,-5.635
'0:16.900',-5.990,-5.630
'0:16.903',-6.010,-5.620
'0:16.906',-5.960,-5.610
'0:16.908',-5.975,-5.610
'0:16.911',-5.990,-5.620
'0:16.914',-5.975,-5.625
'0:16.917',-5.990,-5.630
'0:16.919',-6.000,-5.645
'0:16.922',-6.005,-5.670
'0:16.925',-6.005,-5.665
'0:16.928',-6.005,-5.660
'0:16.931',-6.000,-5.655
'0:16.933',-5.995,-5.640
'0:16.936',-5.995,-5.620
'0:16.939',-5.995,-5.620
'0:16.942',-5.990,-5.625
'0:16.944',-6.000,-5.615
'0:16.947',-6.020,-5.630
'0:16.950',-6.015,-5.635
'0:16.953',-6.010,-5.650
'0:16.956',-6.030,-5.655
'0:16.958',-6.025,-5.675
'0:16.961',-6.035,-5.645
'0:16.964',-6.020,-5.640
'0:16.967',-6.015,-5.630
'0:16.969',-6.010,-5.645
'0:16.972',-5.990,-5.635
'0:16.975',-5.995,-5.635
'0:16.978',-5.995,-5.640
'0:16.981',-6.010,-5.645
'0:16.983',-6.005,-5.670
'0:16.986',-6.020,-5.675
'0:16.989',-6.025,-5.685
'0:16.992',-6.040,-5.680
'0:16.994',-6.045,-5.665
'0:16.997',-6.045,-5.670
'0:17.000',-6.020,-5.675
'0:17.003',-6.005,-5.640
'0:17.006',-6.015,-5.630
'0:17.008',-5.995,-5.630
'0:17.011',-6.000,-5.645
'0:17.014',-6.000,-5.640
'0:17.017',-6.005,-5.655
'0:17.019',-6.015,-5.665
'0:17.022',-6.025,-5.670
'0:17.025',-6.025,-5.670
'0:17.028',-6.020,-5.670
'0:17.031',-6.015,-5.650
'0:17.033',-6.000,-5.645
'0:17.036',-5.970,-5.645
'0:17.039',-5.980,-5.645
'0:17.042',-5.965,-5.635
'0:17.044',-5.970,-5.640
'0:17.047',-5.945,-5.625
'0:17.050',-5.940,-5.625
'0:17.053',-5.935,-5.615
'0:17.056',-5.930,-5.625
'0:17.058',-5.900,-5.615
'0:17.061',-5.905,-5.585
'0:17.064',-5.880,-5.575
'0:17.067',-5.855,-5.555
'0:17.069',-5.830,-5.530
'0:17.072',-5.810,-5.515
'0:17.075',-5.780,-5.525
'0:17.078',-5.755,-5.525
'0:17.081',-5.715,-5.535
'0:17.083',-5.695,-5.560
'0:17.086',-5.695,-5.585
'0:17.089',-5.665,-5.615
'0:17.092',-5.680,-5.640
'0:17.094',-5.690,-5.655
'0:17.097',-5.700,-5.655
'0:17.100',-5.695,-5.680
'0:17.103',-5.680,-5.690
'0:17.106',-5.680,-5.665
'0:17.108',-5.685,-5.665
'0:17.111',-5.720,-5.680
'0:17.114',-5.760,-5.675
'0:17.117',-5.810,-5.690
'0:17.119',-5.885,-5.705
'0:17.122',-5.955,-5.695
'0:17.125',-5.995,-5.705
'0:17.128',-6.030,-5.680
'0:17.131',-6.045,-5.675
'0:17.133',-6.045,-5.660
'0:17.136',-6.030,-5.675
'0:17.139',-6.025,-5.655
'0:17.142',-6.015,-5.675
'0:17.144',-6.035,-5.695
'0:17.147',-6.045,-5.690
'0:17.150',-6.050,-5.715
'0:17.153',-6.050,-5.715
'0:17.156',-6.070,-5.735
'0:17.158',-6.070,-5.735
'0:17.161',-6.080,-5.730
'0:17.164',-6.075,-5.715
'0:17.167',-6.070,-5.710
'0:17.169',-6.065,-5.700
'0:17.172',-6.065,-5.685
'0:17.175',-6.045,-5.675
'0:17.178',-6.045,-5.670
'0:17.181',-6.070,-5.675
'0:17.183',-6.075,-5.685
'0:17.186',-6.080,-5.710
'0:17.189',-6.085,-5.710
'0:17.192',-6.090,-5.705
'0:17.194',-6.095,-5.690
'0:17.197',-6.090,-5.695
'0:17.200',-6.060,-5.695
'0:17.203',-6.050,-5.685
'0:17.206',-6.035,-5.665
'0:17.208',-6.045,-5.675
'0:17.211',-6.050,-5.665
'0:17.214',-6.085,-5.670
'0:17.217',-6.110,-5.655
'0:17.219',-6.140,-5.635
'0:17.222',-6.140,-5.605
'0:17.225',-6.060,-5.550
'0:17.228',-5.955,-5.505
'0:17.231',-5.765,-5.475
'0:17.233',-5.500,-5.505
'0:17.236',-5.165,-5.560
'0:17.239',-4.790,-5.680
'0:17.242',-4.430,-5.875
'0:17.244',-4.135,-6.090
'0:17.247',-3.930,-6.330
'0:17.250',-3.850,-6.545
'0:17.253',-3.895,-6.685
'0:17.256',-4.050,-6.755
'0:17.258',-4.330,-6.735
'0:17.261',-4.785,-6.675
'0:17.264',-5.310,-6.595
'0:17.267',-5.820,-6.515
'0:17.269',-6.150,-6.420
'0:17.272',-6.250,-6.320
'0:17.275',-6.205,-6.215
'0:17.278',-6.060,-6.150
'0:17.281',-5.920,-6.075
'0:17.283',-5.845,-6.035
'0:17.286',-5.830,-5.980
'0:17.289',-5.875,-5.905
'0:17.292',-5.965,-5.850
'0:17.294',-6.010,-5.795
'0:17.297',-6.045,-5.755
'0:17.300',-6.070,-5.710
'0:17.303',-6.065,-5.675
'0:17.306',-6.050,-5.660
'0:17.308',-6.045,-5.645
'0:17.311',-6.045,-5.640
'0:17.314',-6.070,-5.655
'0:17.317',-6.060,-5.635
'0:17.319',-6.090,-5.645
'0:17.322',-6.100,-5.650
'0:17.325',-6.110,-5.645
'0:17.328',-6.110,-5.630
'0:17.331',-6.115,-5.640
'0:17.333',-6.095,-5.625
'0:17.336',-6.090,-5.610
'0:17.339',-6.085,-5.600
'0:17.342',-6.075,-5.600
'0:17.344',-6.100,-5.600
'0:17.347',-6.110,-5.615
'0:17.350',-6.110,-5.630
'0:17.353',-6.130,-5.630
'0:17.356',-6.130,-5.640
'0:17.358',-6.125,-5.640
'0:17.361',-6.120,-5.630
'0:17.364',-6.110,-5.605
'0:17.367',-6.105,-5.605
'0:17.369',-6.105,-5.575
'0:17.372',-6.095,-5.575
'0:17.375',-6.070,-5.580
'0:17.378',-6.090,-5.580
'0:17.381',-6.090,-5.590
'0:17.383',-6.100,-5.605
'0:17.386',-6.110,-5.610
'0:17.389',-6.140,-5.645
'0:17.392',-6.120,-5.625
'0:17.394',-6.115,-5.635
'0:17.397',-6.105,-5.630
'0:17.400',-6.105,-5.620
'0:17.403',-6.080,-5.625
'0:17.406',-6.070,-5.610
'0:17.408',-6.055,-5.585
'0:17.411',-6.060,-5.595
'0:17.414',-6.070,-5.600
'0:17.417',-6.060,-5.610
'0:17.419',-6.085,-5.600
'0:17.422',-6.085,-5.605
'0:17.425',-6.080,-5.610
'0:17.428',-6.070,-5.590
'0:17.431',-6.065,-5.605
'0:17.433',-6.035,-5.590
'0:17.436',-6.035,-5.570
'0:17.439',-6.000,-5.565
'0:17.442',-5.985,-5.560
'0:17.444',-5.980,-5.570
'0:17.447',-5.965,-5.580
'0:17.450',-5.985,-5.590
'0:17.453',-5.995,-5.590
'0:17.456',-5.995,-5.595
'0:17.458',-5.975,-5.615
'0:17.461',-5.965,-5.610
'0:17.464',-5.950,-5.600
'0:17.467',-5.940,-5.580
'0:17.469',-5.910,-5.580
'0:17.472',-5.905,-5.570
'0:17.475',-5.870,-5.575
'0:17.478',-5.850,-5.555
'0:17.481',-5.835,-5.575
'0:17.483',-5.830,-5.580
'0:17.486',-5.800,-5.575
'0:17.489',-5.800,-5.595
'0:17.492',-5.780,-5.605
'0:17.494',-5.775,-5.595
'0:17.497',-5.730,-5.595
'0:17.500',-5.695,-5.570
'0:17.503',-5.675,-5.590
'0:17.506',-5.630,-5.585
'0:17.508',-5.610,-5.585
'0:17.511',-5.590,-5.605
'0:17.514',-5.585,-5.600
'0:17.517',-5.585,-5.615
'0:17.519',-5.565,-5.615
'0:17.522',-5.560,-5.630
'0:17.525',-5.535,-5.655
'0:17.528',-5.525,-5.645
'0:17.531',-5.525,-5.645
'0:17.533',-5.495,-5.650
'0:17.536',-5.475,-5.635
'0:17.539',-5.455,-5.620
'0:17.542',-5.435,-5.610
'0:17.544',-5.430,-5.615
'0:17.547',-5.440,-5.615
'0:17.550',-5.445,-5.630
'0:17.553',-5.450,-5.640
'0:17.556',-5.475,-5.640
'0:17.558',-5.475,-5.655
'0:17.561',-5.505,-5.635
'0:17.564',-5.525,-5.650
'0:17.567',-5.540,-5.625
'0:17.569',-5.555,-5.600
'0:17.572',-5.590,-5.615
'0:17.575',-5.610,-5.595
'0:17.578',-5.655,-5.585
'0:17.581',-5.690,-5.595
'0:17.583',-5.740,-5.605
'0:17.586',-5.765,-5.590
'0:17.589',-5.795,-5.610
'0:17.592',-5.845,-5.610
'0:17.594',-5.870,-5.605
'0:17.597',-5.895,-5.600
'0:17.600',-5.895,-5.580
'0:17.603',-5.930,-5.575
'0:17.606',-5.940,-5.555
'0:17.608',-5.950,-5.545
'0:17.611',-5.970,-5.555
'0:17.614',-5.985,-5.550
'0:17.617',-6.000,-5.570
'0:17.619',-6.020,-5.590
'0:17.622',-6.030,-5.605
'0:17.625',-6.050,-5.620
'0:17.628',-6.045,-5.610
'0:17.631',-6.045,-5.600
'0:17.633',-6.050,-5.600
'0:17.636',-6.040,-5.590
'0:17.639',-6.030,-5.580
'0:17.642',-6.030,-5.585
'0:17.644',-6.045,-5.600
'0:17.647',-6.055,-5.590
'0:17.650',-6.060,-5.600
'0:17.653',-6.075,-5.625
'0:17.656',-6.075,-5.635
'0:17.658',-6.090,-5.640
'0:17.661',-6.095,-5.635
'0:17.664',-6.090,-5.610
'0:17.667',-6.075,-5.590
'0:17.669',-6.065,-5.570
'0:17.672',-6.065,-5.575
'0:17.675',-6.060,-5.575
'0:17.678',-6.055,-5.590
'0:17.681',-6.055,-5.590
'0:17.683',-6.065,-5.590
'0:17.686',-6.095,-5.615
'0:17.689',-6.095,-5.630
'0:17.692',-6.085,-5.625
'0:17.694',-6.080,-5.625
'0:17.697',-6.075,-5.615
'0:17.700',-6.055,-5.620
'0:17.703',-6.055,-5.600
'0:17.706',-6.065,-5.615
'0:17.708',-6.065,-5.600
'0:17.711',-6.055,-5.605
'0:17.714',-6.065,-5.600
'0:17.717',-6.065,-5.625
'0:17.719',-6.070,-5.635
'0:17.722',-6.060,-5.640
'0:17.725',-6.030,-5.630
'0:17.728',-6.035,-5.635
'0:17.731',-6.045,-5.620
'0:17.733',-6.040,-5.630
'0:17.736',-6.015,-5.610
'0:17.739',-6.020,-5.610
'0:17.742',-6.015,-5.610
'0:17.744',-6.010,-5.610
'0:17.747',-6.005,-5.620
'0:17.750',-6.010,-5.610
'0:17.753',-6.040,-5.625
'0:17.756',-6.030,-5.640
'0:17.758',-6.040,-5.640
'0:17.761',-6.055,-5.640
'0:17.764',-6.050,-5.630
'0:17.767',-6.025,-5.620
'0:17.769',-6.010,-5.600
'0:17.772',-6.015,-5.590
'0:17.775',-5.995,-5.595
'0:17.778',-6.010,-5.585
'0:17.781',-6.020,-5.600
'0:17.783',-6.015,-5.610
'0:17.786',-6.030,-5.625
'0:17.789',-6.045,-5.620
'0:17.792',-6.045,-5.625
'0:17.794',-6.055,-5.640
'0:17.797',-6.055,-5.605
'0:17.800',-6.045,-5.585
'0:17.803',-6.045,-5.600
'0:17.806',-6.045,-5.590
'0:17.808',-6.030,-5.585
'0:17.811',-6.025,-5.595
'0:17.814',-6.045,-5.600
'0:17.817',-6.055,-5.600
'0:17.819',-6.065,-5.620
'0:17.822',-6.075,-5.610
'0:17.825',-6.080,-5.635
'0:17.828',-6.085,-5.635
'0:17.831',-6.095,-5.625
'0:17.833',-6.080,-5.615
'0:17.836',-6.070,-5.590
'0:17.839',-6.040,-5.600
'0:17.842',-6.030,-5.590
'0:17.844',-6.035,-5.600
'0:17.847',-6.045,-5.605
'0:17.850',-6.045,-5.620
'0:17.853',-6.065,-5.610
'0:17.856',-6.065,-5.625
'0:17.858',-6.060,-5.625
'0:17.861',-6.085,-5.640
'0:17.864',-6.080,-5.625
'0:17.867',-6.085,-5.615
'0:17.869',-6.085,-5.595
'0:17.872',-6.085,-5.585
'0:17.875',-6.060,-5.595
'0:17.878',-6.065,-5.610
'0:17.881',-6.065,-5.605
'0:17.883',-6.080,-5.610
'0:17.886',-6.090,-5.630
'0:17.889',-6.105,-5.645
'0:17.892',-6.095,-5.630
'0:17.894',-6.085,-5.630
'0:17.897',-6.085,-5.625
'0:17.900',-6.065,-5.605
'0:17.903',-6.055,-5.595
'0:17.906',-6.035,-5.585
'0:17.908',-6.015,-5.580
'0:17.911',-6.000,-5.570
'0:17.914',-6.005,-5.565
'0:17.917',-5.980,-5.585
'0:17.919',-5.980,-5.575
'0:17.922',-5.975,-5.580
'0:17.925',-5.965,-5.565
'0:17.928',-5.965,-5.580
'0:17.931',-5.935,-5.555
'0:17.933',-5.920,-5.525
'0:17.936',-5.895,-5.540
'0:17.939',-5.860,-5.510
'0:17.942',-5.810,-5.515
'0:17.944',-5.775,-5.520
'0:17.947',-5.745,-5.520
'0:17.950',-5.725,-5.560
'0:17.953',-5.730,-5.590
'0:17.956',-5.740,-5.620
'0:17.958',-5.740,-5.640
'0:17.961',-5.765,-5.660
'0:17.964',-5.765,-5.640
'0:17.967',-5.775,-5.650
'0:17.969',-5.775,-5.630
'0:17.972',-5.775,-5.630
'0:17.975',-5.795,-5.630
'0:17.978',-5.855,-5.635
'0:17.981',-5.895,-5.640
'0:17.983',-5.950,-5.640
'0:17.986',-6.000,-5.660
'0:17.989',-6.060,-5.645
'0:17.992',-6.075,-5.660
'0:17.994',-6.110,-5.665
'0:17.997',-6.100,-5.645
'0:18.000',-6.100,-5.660
'0:18.003',-6.095,-5.650
'0:18.006',-6.090,-5.645
'0:18.008',-6.085,-5.645
'0:18.011',-6.105,-5.655
'0:18.014',-6.110,-5.640
'0:18.017',-6.125,-5.675
'0:18.019',-6.125,-5.675
'0:18.022',-6.140,-5.685
'0:18.025',-6.150,-5.675
'0:18.028',-6.155,-5.665
'0:18.031',-6.140,-5.660
'0:18.033',-6.130,-5.660
'0:18.036',-6.115,-5.625
'0:18.039',-6.115,-5.640
'0:18.042',-6.100,-5.630
'0:18.044',-6.115,-5.630
'0:18.047',-6.110,-5.640
'0:18.050',-6.140,-5.645
'0:18.053',-6.135,-5.660
'0:18.056',-6.130,-5.670
'0:18.058',-6.125,-5.685
'0:18.061',-6.140,-5.680
'0:18.064',-6.135,-5.675
'0:18.067',-6.130,-5.665
'0:18.069',-6.120,-5.670
'0:18.072',-6.100,-5.655
'0:18.075',-6.115,-5.645
'0:18.078',-6.150,-5.620
'0:18.081',-6.155,-5.605
'0:18.083',-6.140,-5.580
'0:18.086',-6.120,-5.550
'0:18.089',-6.050,-5.515
'0:18.092',-5.915,-5.470
'0:18.094',-5.715,-5.440
'0:18.097',-5.475,-5.470
'0:18.100',-5.145,-5.540
'0:18.103',-4.770,-5.645
'0:18.106',-4.420,-5.790
'0:18.108',-4.145,-5.995
'0:18.111',-3.980,-6.215
'0:18.114',-3.920,-6.405
'0:18.117',-3.940,-6.530
'0:18.119',-4.075,-6.635
'0:18.122',-4.345,-6.650
'0:18.125',-4.735,-6.610
'0:18.128',-5.230,-6.555
'0:18.131',-5.740,-6.485
'0:18.133',-6.110,-6.425
'0:18.136',-6.280,-6.335
'0:18.139',-6.265,-6.225
'0:18.142',-6.140,-6.135
'0:18.144',-5.995,-6.055
'0:18.147',-5.905,-5.990
'0:18.150',-5.860,-5.935
'0:18.153',-5.910,-5.865
'0:18.156',-5.960,-5.820
'0:18.158',-6.030,-5.775
'0:18.161',-6.100,-5.705
'0:18.164',-6.120,-5.670
'0:18.167',-6.140,-5.645
'0:18.169',-6.145,-5.640
'0:18.172',-6.145,-5.620
'0:18.175',-6.130,-5.615
'0:18.178',-6.120,-5.615
'0:18.181',-6.130,-5.600
'0:18.183',-6.140,-5.635
'0:18.186',-6.155,-5.605
'0:18.189',-6.155,-5.620
'0:18.192',-6.170,-5.625
'0:18.194',-6.200,-5.620
'0:18.197',-6.175,-5.620
'0:18.200',-6.175,-5.585
'0:18.203',-6.155,-5.595
'0:18.206',-6.140,-5.570
'0:18.208',-6.150,-5.565
'0:18.211',-6.150,-5.570
'0:18.214',-6.140,-5.560
'0:18.217',-6.155,-5.575
'0:18.219',-6.150,-5.580
'0:18.222',-6.160,-5.575
'0:18.225',-6.170,-5.595
'0:18.228',-6.180,-5.590
'0:18.231',-6.165,-5.580
'0:18.233',-6.160,-5.565
'0:18.236',-6.140,-5.565
'0:18.239',-6.150,-5.555
'0:18.242',-6.115,-5.570
'0:18.244',-6.120,-5.565
'0:18.247',-6.115,-5.565
'0:18.250',-6.135,-5.585
'0:18.253',-6.135,-5.585
'0:18.256',-6.150,-5.610
'0:18.258',-6.160,-5.610
'0:18.261',-6.140,-5.615
'0:18.264',-6.160,-5.605
'0:18.267',-6.160,-5.595
'0:18.269',-6.130,-5.585
'0:18.272',-6.120,-5.555
'0:18.275',-6.095,-5.555
'0:18.278',-6.110,-5.555
'0:18.281',-6.100,-5.560
'0:18.283',-6.105,-5.560
'0:18.286',-6.105,-5.570
'0:18.289',-6.130,-5.585
'0:18.292',-6.115,-5.590
'0:18.294',-6.115,-5.595
'0:18.297',-6.105,-5.605
'0:18.300',-6.095,-5.575
'0:18.303',-6.080,-5.565
'0:18.306',-6.060,-5.555
'0:18.308',-6.045,-5.555
'0:18.311',-6.035,-5.560
'0:18.314',-6.025,-5.575
'0:18.317',-6.025,-5.590
'0:18.319',-6.030,-5.590
'0:18.322',-6.030,-5.605
'0:18.325',-6.025,-5.595
'0:18.328',-6.025,-5.620
'0:18.331',-6.010,-5.600
'0:18.333',-5.985,-5.595
'0:18.336',-5.975,-5.580
'0:18.339',-5.950,-5.570
'0:18.342',-5.930,-5.565
'0:18.344',-5.920,-5.565
'0:18.347',-5.915,-5.555
'0:18.350',-5.905,-5.575
'0:18.353',-5.900,-5.570
'0:18.356',-5.890,-5.600
'0:18.358',-5.890,-5.605
'0:18.361',-5.865,-5.600
'0:18.364',-5.845,-5.575
'0:18.367',-5.825,-5.575
'0:18.369',-5.780,-5.565
'0:18.372',-5.760,-5.555
'0:18.375',-5.745,-5.560
'0:18.378',-5.715,-5.560
'0:18.381',-5.700,-5.575
'0:18.383',-5.695,-5.590
'0:18.386',-5.685,-5.585
'0:18.389',-5.660,-5.585
'0:18.392',-5.640,-5.595
'0:18.394',-5.625,-5.600
'0:18.397',-5.605,-5.575
'0:18.400',-5.565,-5.570
'0:18.403',-5.545,-5.570
'0:18.406',-5.515,-5.580
'0:18.408',-5.500,-5.555
'0:18.411',-5.500,-5.570
'0:18.414',-5.490,-5.570
'0:18.417',-5.495,-5.570
'0:18.419',-5.465,-5.580
'0:18.422',-5.465,-5.605
'0:18.425',-5.475,-5.610
'0:18.428',-5.475,-5.605
'0:18.431',-5.465,-5.620
'0:18.433',-5.460,-5.600
'0:18.436',-5.455,-5.605
'0:18.439',-5.460,-5.580
'0:18.442',-5.480,-5.580
'0:18.444',-5.495,-5.585
'0:18.447',-5.525,-5.580
'0:18.450',-5.560,-5.600
'0:18.453',-5.605,-5.610
'0:18.456',-5.640,-5.610
'0:18.458',-5.665,-5.605
'0:18.461',-5.700,-5.610
'0:18.464',-5.735,-5.600
'0:18.467',-5.765,-5.585
'0:18.469',-5.770,-5.570
'0:18.472',-5.825,-5.565
'0:18.475',-5.830,-5.550
'0:18.478',-5.855,-5.550
'0:18.481',-5.875,-5.540
'0:18.483',-5.915,-5.560
'0:18.486',-5.955,-5.580
'0:18.489',-5.965,-5.605
'0:18.492',-5.990,-5.600
'0:18.494',-5.990,-5.605
'0:18.497',-6.025,-5.600
'0:18.500',-6.020,-5.590
'0:18.503',-6.015,-5.590
'0:18.506',-6.015,-5.600
'0:18.508',-6.010,-5.575
'0:18.511',-6.025,-5.590
'0:18.514',-6.035,-5.600
'0:18.517',-6.040,-5.605
'0:18.519',-6.065,-5.615
'0:18.522',-6.075,-5.640
'0:18.525',-6.090,-5.635
'0:18.528',-6.095,-5.635
'0:18.531',-6.090,-5.630
'0:18.533',-6.090,-5.630
'0:18.536',-6.070,-5.620
'0:18.539',-6.060,-5.605
'0:18.542',-6.065,-5.615
'0:18.544',-6.065,-5.600
'0:18.547',-6.075,-5.605
'0:18.550',-6.085,-5.615
'0:18.553',-6.095,-5.625
'0:18.556',-6.085,-5.635
'0:18.558',-6.095,-5.650
'0:18.561',-6.090,-5.640
'0:18.564',-6.105,-5.615
'0:18.567',-6.105,-5.605
'0:18.569',-6.080,-5.600
'0:18.572',-6.055,-5.600
'0:18.575',-6.045,-5.605
'0:18.578',-6.045,-5.610
'0:18.581',-6.050,-5.625
'0:18.583',-6.060,-5.630
'0:18.586',-6.055,-5.640
'0:18.589',-6.070,-5.630
'0:18.592',-6.085,-5.635
'0:18.594',-6.080,-5.640
'0:18.597',-6.065,-5.630
'0:18.600',-6.050,-5.615
'0:18.603',-6.040,-5.610
'0:18.606',-6.045,-5.600
'0:18.608',-6.035,-5.580
'0:18.611',-6.025,-5.595
'0:18.614',-6.030,-5.600
'0:18.617',-6.045,-5.610
'0:18.619',-6.050,-5.625
'0:18.622',-6.050,-5.625
'0:18.625',-6.030,-5.630
'0:18.628',-6.030,-5.640
'0:18.631',-6.030,-5.630
'0:18.633',-6.025,-5.620
'0:18.636',-6.010,-5.610
'0:18.639',-6.000,-5.595
'0:18.642',-6.020,-5.605
'0:18.644',-6.005,-5.615
'0:18.647',-5.990,-5.630
'0:18.650',-6.000,-5.640
'0:18.653',-6.005,-5.655
'0:18.656',-6.010,-5.665
'0:18.658',-6.025,-5.665
'0:18.661',-6.015,-5.660
'0:18.664',-6.035,-5.645
'0:18.667',-6.005,-5.610
'0:18.669',-6.010,-5.615
'0:18.672',-6.005,-5.595
'0:18.675',-6.010,-5.625
'0:18.678',-6.010,-5.620
'0:18.681',-6.015,-5.620
'0:18.683',-6.020,-5.635
'0:18.686',-6.040,-5.635
'0:18.689',-6.055,-5.640
'0:18.692',-6.050,-5.665
'0:18.694',-6.045,-5.660
'0:18.697',-6.040,-5.655
'0:18.700',-6.040,-5.655
'0:18.703',-6.035,-5.630
'0:18.706',-6.020,-5.630
'0:18.708',-6.010,-5.630
'0:18.711',-6.005,-5.625
'0:18.714',-6.015,-5.640
'0:18.717',-6.025,-5.645
'0:18.719',-6.045,-5.640
'0:18.722',-6.050,-5.665
'0:18.725',-6.065,-5.660
'0:18.728',-6.070,-5.660
'0:18.731',-6.055,-5.655
'0:18.733',-6.055,-5.655
'0:18.736',-6.060,-5.635
'0:18.739',-6.050,-5.630
'0:18.742',-6.045,-5.620
'0:18.744',-6.035,-5.615
'0:18.747',-6.040,-5.615
'0:18.750',-6.040,-5.640
'0:18.753',-6.055,-5.665
'0:18.756',-6.065,-5.665
'0:18.758',-6.080,-5.660
'0:18.761',-6.075,-5.675
'0:18.764',-6.045,-5.650
'0:18.767',-6.055,-5.640
'0:18.769',-6.045,-5.655
'0:18.772',-6.035,-5.640
'0:18.775',-6.050,-5.635
'0:18.778',-6.055,-5.635
'0:18.781',-6.060,-5.655
'0:18.783',-6.065,-5.660
'0:18.786',-6.070,-5.650
'0:18.789',-6.080,-5.665
'0:18.792',-6.080,-5.665
'0:18.794',-6.070,-5.655
'0:18.797',-6.065,-5.650
'0:18.800',-6.095,-5.640
'0:18.803',-6.070,-5.620
'0:18.806',-6.070,-5.635
'0:18.808',-6.055,-5.625
'0:18.811',-6.045,-5.630
'0:18.814',-6.045,-5.625
'0:18.817',-6.045,-5.645
'0:18.819',-6.040,-5.655
'0:18.822',-6.060,-5.665
'0:18.825',-6.075,-5.675
'0:18.828',-6.075,-5.680
'0:18.831',-6.070,-5.665
'0:18.833',-6.055,-5.670
'0:18.836',-6.045,-5.655
'0:18.839',-6.040,-5.660
'0:18.842',-6.030,-5.645
'0:18.844',-6.025,-5.650
'0:18.847',-6.025,-5.640
'0:18.850',-6.035,-5.660
'0:18.853',-6.045,-5.665
'0:18.856',-6.045,-5.660
'0:18.858',-6.045,-5.660
'0:18.861',-6.040,-5.660
'0:18.864',-6.015,-5.655
'0:18.867',-6.010,-5.645
'0:18.869',-5.980,-5.625
'0:18.872',-5.940,-5.585
'0:18.875',-5.915,-5.605
'0:18.878',-5.895,-5.605
'0:18.881',-5.890,-5.590
'0:18.883',-5.895,-5.600
'0:18.886',-5.905,-5.595
'0:18.889',-5.875,-5.590
'0:18.892',-5.860,-5.590
'0:18.894',-5.850,-5.575
'0:18.897',-5.800,-5.570
'0:18.900',-5.760,-5.560
'0:18.903',-5.725,-5.550
'0:18.906',-5.700,-5.560
'0:18.908',-5.660,-5.560
'0:18.911',-5.650,-5.595
'0:18.914',-5.675,-5.620
'0:18.917',-5.695,-5.660
'0:18.919',-5.710,-5.685
'0:18.922',-5.735,-5.710
'0:18.925',-5.730,-5.710
'0:18.928',-5.755,-5.725
'0:18.931',-5.765,-5.720
'0:18.933',-5.790,-5.705
'0:18.936',-5.825,-5.720
'0:18.939',-5.875,-5.705
'0:18.942',-5.930,-5.690
'0:18.944',-5.980,-5.680
'0:18.947',-6.000,-5.705
'0:18.950',-6.040,-5.705
'0:18.953',-6.055,-5.720
'0:18.956',-6.075,-5.730
'0:18.958',-6.090,-5.740
'0:18.961',-6.080,-5.735
'0:18.964',-6.080,-5.745
'0:18.967',-6.070,-5.720
'0:18.969',-6.075,-5.715
'0:18.972',-6.080,-5.710
'0:18.975',-6.070,-5.680
'0:18.978',-6.060,-5.695
'0:18.981',-6.055,-5.700
'0:18.983',-6.065,-5.695
'0:18.986',-6.070,-5.710
'0:18.989',-6.080,-5.730
'0:18.992',-6.090,-5.735
'0:18.994',-6.085,-5.730
'0:18.997',-6.090,-5.725
'0:19.000',-6.080,-5.715
'0:19.003',-6.065,-5.700
'0:19.006',-6.060,-5.685
'0:19.008',-6.065,-5.685
'0:19.011',-6.045,-5.700
'0:19.014',-6.070,-5.705
'0:19.017',-6.070,-5.705
'0:19.019',-6.070,-5.725
'0:19.022',-6.070,-5.740
'0:19.025',-6.065,-5.735
'0:19.028',-6.075,-5.740
'0:19.031',-6.090,-5.730
'0:19.033',-6.115,-5.695
'0:19.036',-6.120,-5.685
'0:19.039',-6.115,-5.615
'0:19.042',-6.060,-5.545
'0:19.044',-5.950,-5.500
'0:19.047',-5.765,-5.465
'0:19.050',-5.495,-5.480
'0:19.053',-5.160,-5.570
'0:19.056',-4.770,-5.725
'0:19.058',-4.390,-5.925
'0:19.061',-4.090,-6.160
'0:19.064',-3.890,-6.395
'0:19.067',-3.825,-6.615
'0:19.069',-3.860,-6.755
'0:19.072',-4.015,-6.815
'0:19.075',-4.310,-6.785
'0:19.078',-4.730,-6.745
'0:19.081',-5.245,-6.685
'0:19.083',-5.750,-6.620
'0:19.086',-6.070,-6.525
'0:19.089',-6.190,-6.445
'0:19.092',-6.160,-6.335
'0:19.094',-6.010,-6.225
'0:19.097',-5.895,-6.130
'0:19.100',-5.815,-6.040
'0:19.103',-5.795,-5.950
'0:19.106',-5.830,-5.880
'0:19.108',-5.890,-5.810
'0:19.111',-5.945,-5.765
'0:19.114',-5.995,-5.730
'0:19.117',-6.040,-5.725
'0:19.119',-6.050,-5.695
'0:19.122',-6.050,-5.710
'0:19.125',-6.060,-5.700
'0:19.128',-6.060,-5.720
'0:19.131',-6.050,-5.690
'0:19.133',-6.065,-5.670
'0:19.136',-6.045,-5.660
'0:19.139',-6.030,-5.635
'0:19.142',-6.055,-5.640
'0:19.144',-6.040,-5.635
'0:19.147',-6.065,-5.640
'0:19.150',-6.060,-5.640
'0:19.153',-6.065,-5.650
'0:19.156',-6.080,-5.655
'0:19.158',-6.080,-5.645
'0:19.161',-6.080,-5.645
'0:19.164',-6.095,-5.630
'0:19.167',-6.090,-5.630
'0:19.169',-6.065,-5.615
'0:19.172',-6.065,-5.595
'0:19.175',-6.050,-5.585
'0:19.178',-6.065,-5.585
'0:19.181',-6.075,-5.595
'0:19.183',-6.075,-5.625
'0:19.186',-6.075,-5.640
'0:19.189',-6.080,-5.630
'0:19.192',-6.090,-5.630
'0:19.194',-6.105,-5.635
'0:19.197',-6.095,-5.620
'0:19.200',-6.070,-5.615
'0:19.203',-6.085,-5.595
'0:19.206',-6.065,-5.595
'0:19.208',-6.050,-5.590
'0:19.211',-6.045,-5.600
'0:19.214',-6.050,-5.595
'0:19.217',-6.045,-5.620
'0:19.219',-6.070,-5.610
'0:19.222',-6.065,-5.630
'0:19.225',-6.080,-5.615
'0:19.228',-6.095,-5.610
'0:19.231',-6.085,-5.610
'0:19.233',-6.065,-5.600
'0:19.236',-6.060,-5.595
'0:19.239',-6.035,-5.580
'0:19.242',-6.030,-5.580
'0:19.244',-6.010,-5.585
'0:19.247',-6.010,-5.580
'0:19.250',-6.005,-5.585
'0:19.253',-6.010,-5.610
'0:19.256',-6.000,-5.615
'0:19.258',-6.010,-5.620
'0:19.261',-5.995,-5.615
'0:19.264',-6.005,-5.605
'0:19.267',-5.980,-5.600
'0:19.269',-5.970,-5.610
'0:19.272',-5.935,-5.585
'0:19.275',-5.930,-5.580
'0:19.278',-5.920,-5.570
'0:19.281',-5.910,-5.585
'0:19.283',-5.890,-5.575
'0:19.286',-5.895,-5.580
'0:19.289',-5.900,-5.590
'0:19.292',-5.880,-5.570
'0:19.294',-5.865,-5.585
'0:19.297',-5.835,-5.580
'0:19.300',-5.810,-5.555
'0:19.303',-5.795,-5.555
'0:19.306',-5.775,-5.560
'0:19.308',-5.740,-5.550
'0:19.311',-5.715,-5.550
'0:19.314',-5.690,-5.570
'0:19.317',-5.675,-5.580
'0:19.319',-5.665,-5.580
'0:19.322',-5.670,-5.590
'0:19.325',-5.645,-5.595
'0:19.328',-5.635,-5.615
'0:19.331',-5.600,-5.610
'0:19.333',-5.575,-5.595
'0:19.336',-5.545,-5.570
'0:19.339',-5.515,-5.565
'0:19.342',-5.490,-5.575
'0:19.344',-5.475,-5.580
'0:19.347',-5.475,-5.575
'0:19.350',-5.455,-5.585
'0:19.353',-5.460,-5.600
'0:19.356',-5.430,-5.585
'0:19.358',-5.440,-5.600
'0:19.361',-5.415,-5.605
'0:19.364',-5.410,-5.610
'0:19.367',-5.390,-5.610
'0:19.369',-5.390,-5.600
'0:19.372',-5.365,-5.605
'0:19.375',-5.355,-5.590
'0:19.378',-5.360,-5.595
'0:19.381',-5.395,-5.605
'0:19.383',-5.425,-5.625
'0:19.386',-5.430,-5.615
'0:19.389',-5.450,-5.625
'0:19.392',-5.495,-5.650
'0:19.394',-5.525,-5.650
'0:19.397',-5.555,-5.625
'0:19.400',-5.560,-5.625
'0:19.403',-5.595,-5.620
'0:19.406',-5.605,-5.590
'0:19.408',-5.640,-5.585
'0:19.411',-5.660,-5.580
'0:19.414',-5.705,-5.600
'0:19.417',-5.735,-5.600
'0:19.419',-5.765,-5.615
'0:19.422',-5.810,-5.605
'0:19.425',-5.835,-5.655
'0:19.428',-5.865,-5.640
'0:19.431',-5.875,-5.615
'0:19.433',-5.875,-5.625
'0:19.436',-5.890,-5.620
'0:19.439',-5.895,-5.610
'0:19.442',-5.905,-5.620
'0:19.444',-5.920,-5.620
'0:19.447',-5.915,-5.630
'0:19.450',-5.935,-5.640
'0:19.453',-5.970,-5.645
'0:19.456',-5.965,-5.650
'0:19.458',-5.990,-5.670
'0:19.461',-5.980,-5.660
'0:19.464',-6.005,-5.670
'0:19.467',-6.000,-5.650
'0:19.469',-5.980,-5.645
'0:19.472',-5.975,-5.625
'0:19.475',-5.980,-5.635
'0:19.478',-5.970,-5.615
'0:19.481',-5.970,-5.625
'0:19.483',-5.985,-5.635
'0:19.486',-6.000,-5.655
'0:19.489',-5.985,-5.650
'0:19.492',-5.985,-5.660
'0:19.494',-5.995,-5.665
'0:19.497',-5.990,-5.665
'0:19.500',-5.985,-5.665
'0:19.503',-5.980,-5.645
'0:19.506',-5.965,-5.650
'0:19.508',-5.960,-5.640
'0:19.511',-5.950,-5.640
'0:19.514',-5.955,-5.655
'0:19.517',-5.960,-5.650
'0:19.519',-5.965,-5.665
'0:19.522',-5.970,-5.665
'0:19.525',-5.975,-5.685
'0:19.528',-5.975,-5.685
'0:19.531',-5.965,-5.660
'0:19.533',-5.975,-5.640
'0:19.536',-5.955,-5.650
'0:19.539',-5.940,-5.630
'0:19.542',-5.940,-5.620
'0:19.544',-5.930,-5.625
'0:19.547',-5.925,-5.625
'0:19.550',-5.935,-5.655
'0:19.553',-5.935,-5.645
'0:19.556',-5.945,-5.660
'0:19.558',-5.950,-5.670
'0:19.561',-5.950,-5.680
'0:19.564',-5.940,-5.670
'0:19.567',-5.935,-5.670
'0:19.569',-5.915,-5.665
'0:19.572',-5.925,-5.660
'0:19.575',-5.895,-5.645
'0:19.578',-5.910,-5.665
'0:19.581',-5.900,-5.660
'0:19.583',-5.910,-5.660
'0:19.586',-5.920,-5.675
'0:19.589',-5.925,-5.670
'0:19.592',-5.945,-5.700
'0:19.594',-5.950,-5.670
'0:19.597',-5.950,-5.670
'0:19.600',-5.955,-5.655
'0:19.603',-5.935,-5.665
'0:19.606',-5.925,-5.645
'0:19.608',-5.935,-5.660
'0:19.611',-5.915,-5.650
'0:19.614',-5.925,-5.655
'0:19.617',-5.950,-5.655
'0:19.619',-5.975,-5.680
'0:19.622',-5.960,-5.695
'0:19.625',-5.970,-5.685
'0:19.628',-5.975,-5.690
'0:19.631',-5.985,-5.685
'0:19.633',-5.970,-5.685
'0:19.636',-5.980,-5.675
'0:19.639',-5.975,-5.685
'0:19.642',-5.960,-5.670
'0:19.644',-5.965,-5.655
'0:19.647',-5.975,-5.665
'0:19.650',-5.980,-5.665
'0:19.653',-5.980,-5.695
'0:19.656',-5.985,-5.685
'0:19.658',-6.005,-5.680
'0:19.661',-5.990,-5.690
'0:19.664',-5.985,-5.680
'0:19.667',-6.000,-5.675
'0:19.669',-5.995,-5.660
'0:19.672',-5.990,-5.660
'0:19.675',-5.980,-5.640
'0:19.678',-5.970,-5.665
'0:19.681',-5.975,-5.670
'0:19.683',-5.975,-5.675
'0:19.686',-5.995,-5.685
'0:19.689',-6.000,-5.700
'0:19.692',-6.010,-5.700
'0:19.694',-6.005,-5.710
'0:19.697',-6.010,-5.695
'0:19.700',-6.005,-5.705
'0:19.703',-5.990,-5.700
'0:19.706',-5.995,-5.670
'0:19.708',-5.980,-5.675
'0:19.711',-5.975,-5.675
'0:19.714',-5.980,-5.670
'0:19.717',-5.985,-5.670
'0:19.719',-5.980,-5.685
'0:19.722',-6.005,-5.710
'0:19.725',-6.005,-5.695
'0:19.728',-6.025,-5.700
'0:19.731',-6.020,-5.700
'0:19.733',-6.020,-5.690
'0:19.736',-6.025,-5.680
'0:19.739',-6.020,-5.670
'0:19.742',-5.995,-5.670
'0:19.744',-5.990,-5.675
'0:19.747',-5.985,-5.690
'0:19.750',-5.985,-5.690
'0:19.753',-6.015,-5.695
'0:19.756',-6.005,-5.710
'0:19.758',-6.020,-5.720
'0:19.761',-6.020,-5.710
'0:19.764',-6.015,-5.720
'0:19.767',-6.020,-5.705
'0:19.769',-6.020,-5.685
'0:19.772',-6.020,-5.690
'0:19.775',-6.005,-5.680
'0:19.778',-5.980,-5.670
'0:19.781',-5.980,-5.670
'0:19.783',-5.980,-5.660
'0:19.786',-5.975,-5.675
'0:19.789',-5.975,-5.685
'0:19.792',-5.970,-5.665
'0:19.794',-5.970,-5.675
'0:19.797',-5.955,-5.660
'0:19.800',-5.940,-5.640
'0:19.803',-5.905,-5.615
'0:19.806',-5.865,-5.630
'0:19.808',-5.850,-5.610
'0:19.811',-5.855,-5.615
'0:19.814',-5.845,-5.610
'0:19.817',-5.820,-5.585
'0:19.819',-5.805,-5.610
'0:19.822',-5.775,-5.605
'0:19.825',-5.730,-5.595
'0:19.828',-5.700,-5.610
'0:19.831',-5.665,-5.620
'0:19.833',-5.645,-5.625
'0:19.836',-5.640,-5.665
'0:19.839',-5.645,-5.655
'0:19.842',-5.650,-5.665
'0:19.844',-5.660,-5.670
'0:19.847',-5.665,-5.685
'0:19.850',-5.665,-5.690
'0:19.853',-5.685,-5.705
'0:19.856',-5.715,-5.730
'0:19.858',-5.750,-5.725
'0:19.861',-5.800,-5.745
'0:19.864',-5.850,-5.745
'0:19.867',-5.895,-5.735
'0:19.869',-5.930,-5.725
'0:19.872',-5.990,-5.715
'0:19.875',-5.995,-5.705
'0:19.878',-6.005,-5.715
'0:19.881',-6.015,-5.730
'0:19.883',-6.020,-5.735
'0:19.886',-6.020,-5.750
'0:19.889',-6.020,-5.775
'0:19.892',-6.045,-5.780
'0:19.894',-6.050,-5.790
'0:19.897',-6.060,-5.775
'0:19.900',-6.055,-5.755
'0:19.903',-6.055,-5.745
'0:19.906',-6.060,-5.735
'0:19.908',-6.050,-5.715
'0:19.911',-6.045,-5.720
'0:19.914',-6.065,-5.730
'0:19.917',-6.055,-5.730
'0:19.919',-6.055,-5.750
'0:19.922',-6.060,-5.755
'0:19.925',-6.065,-5.760
'0:19.928',-6.075,-5.775
'0:19.931',-6.065,-5.765
'0:19.933',-6.060,-5.755
'0:19.936',-6.045,-5.720
'0:19.939',-6.040,-5.745
'0:19.942',-6.050,-5.725
'0:19.944',-6.040,-5.730
'0:19.947',-6.050,-5.740
'0:19.950',-6.045,-5.735
'0:19.953',-6.045,-5.755
'0:19.956',-6.055,-5.775
'0:19.958',-6.060,-5.765
'0:19.961',-6.065,-5.770
'0:19.964',-6.095,-5.760
'0:19.967',-6.125,-5.710
'0:19.969',-6.130,-5.700
'0:19.972',-6.110,-5.640
'0:19.975',-6.045,-5.570
'0:19.978',-5.900,-5.520
'0:19.981',-5.725,-5.500
'0:19.983',-5.475,-5.525
'0:19.986',-5.140,-5.590
'0:19.989',-4.745,-5.725
'0:19.992',-4.380,-5.905
'0:19.994',-4.100,-6.120
'0:19.997',-3.905,-6.345
